<<PMCA SPECTRUM>>
TAG - live_data
DESCRIPTION - 
GAIN - 4
THRESHOLD - 0
LIVE_MODE - 0
PRESET_TIME - 60
LIVE_TIME - 58.806000
REAL_TIME - 60.000000
START_TIME - 03/16/2026 10:41:42
SERIAL_NUMBER - 1567
<<CALIBRATION>>
LABEL - Channel
1446.37 13.95
1837.93 17.74
<<ROI>>
753 758
763 768
1416 1476
1803 1875
<<DATA>>
0
0
0
0
0
0
0
0
0
0
0
0
0
0
0
0
0
0
0
0
0
0
0
0
0
0
0
0
0
0
0
0
0
0
0
0
0
0
0
0
0
0
0
0
0
0
0
0
2218
3228
2119
1441
949
635
430
281
232
161
132
115
118
91
81
86
95
76
70
59
60
59
51
56
57
51
43
58
41
49
37
35
53
42
46
36
37
35
26
34
38
41
18
29
38
21
19
25
21
18
16
19
36
26
21
13
22
25
21
20
22
13
23
19
18
18
20
17
17
14
16
16
11
16
25
18
10
16
18
17
5
2
2
7
4
3
3
7
5
6
2
7
4
1
6
8
4
3
7
1
3
6
1
4
5
2
3
3
2
7
3
5
7
7
4
2
4
2
2
2
6
5
9
7
2
2
8
4
3
5
3
2
4
7
5
4
1
7
2
7
3
4
5
4
2
6
6
5
4
4
7
3
6
4
5
7
5
2
4
7
2
4
6
4
2
4
7
4
5
2
4
6
1
5
6
3
5
5
1
7
10
5
3
6
5
3
5
4
2
2
4
7
5
3
2
7
6
4
5
5
3
4
2
2
2
6
3
3
2
4
7
6
2
5
0
6
4
3
2
3
3
3
6
1
2
6
4
2
6
6
1
9
0
1
3
5
6
6
3
5
4
0
0
1
3
2
1
6
2
3
3
4
5
1
5
6
3
3
4
2
6
7
2
2
4
6
3
3
3
8
4
1
0
2
3
3
5
2
2
2
7
3
1
4
2
4
2
3
6
3
0
6
6
2
4
1
3
2
2
1
1
0
2
2
5
3
1
1
0
4
5
4
1
9
2
1
2
2
1
1
2
6
1
4
1
2
6
3
2
1
3
0
0
1
1
2
2
0
0
4
1
0
4
1
1
3
2
3
5
2
2
3
0
2
1
2
4
2
2
3
2
3
1
1
4
0
0
0
0
1
2
1
3
3
1
2
2
1
2
1
0
1
1
0
0
1
1
0
2
3
0
3
2
1
0
1
0
0
0
2
1
0
4
0
1
1
1
0
1
2
0
0
2
3
0
0
1
1
1
2
1
2
2
0
1
1
2
1
1
1
1
0
4
3
2
1
0
0
0
1
3
1
2
1
3
0
4
2
3
2
1
1
2
2
3
2
6
8
6
9
1
3
6
11
7
5
1
4
7
9
11
6
6
9
4
6
8
8
7
8
5
12
10
9
11
10
6
10
5
5
5
7
5
9
9
7
10
10
12
5
11
8
8
8
3
10
3
6
4
6
6
4
3
5
5
7
5
7
7
3
6
6
4
7
5
5
7
7
8
4
4
5
1
7
2
8
1
10
6
3
5
4
3
5
2
2
3
4
1
2
4
4
5
6
1
2
2
3
1
1
1
5
3
2
3
2
0
4
1
1
1
4
4
5
0
2
1
0
2
1
2
2
1
2
1
5
3
2
1
3
0
2
1
2
4
7
5
4
2
2
5
3
0
3
2
4
2
2
3
4
5
2
1
3
7
6
5
4
5
4
2
1
4
4
3
6
1
2
2
3
6
3
2
4
1
1
4
1
3
1
1
2
5
5
0
1
2
1
1
0
3
3
3
0
2
2
1
4
3
1
2
2
2
2
2
2
2
2
3
0
0
3
3
2
2
4
4
2
4
1
4
3
2
3
4
5
4
0
2
2
3
1
4
2
1
0
2
6
4
1
1
1
3
3
4
4
3
5
1
4
3
4
2
6
8
7
6
9
8
13
6
12
9
9
5
12
9
12
14
11
10
10
14
12
12
8
9
11
13
12
12
18
7
8
14
14
19
16
12
13
11
14
9
18
22
22
16
25
25
31
35
43
48
60
77
90
122
126
121
156
184
226
246
309
327
388
413
396
443
536
543
557
565
649
643
647
665
725
676
745
761
761
706
710
719
743
680
747
692
760
745
704
694
663
680
612
590
530
520
500
467
435
422
364
337
299
257
254
200
147
152
146
122
114
112
110
83
98
99
118
102
118
99
132
120
139
159
192
195
192
217
242
263
277
285
289
300
313
297
305
334
314
343
357
329
400
347
359
378
347
339
391
371
403
368
349
356
370
338
333
354
335
343
335
297
284
294
260
300
235
231
229
204
214
184
223
181
179
187
174
185
165
165
152
146
142
139
112
113
112
108
108
98
98
79
67
63
53
40
56
41
33
30
36
16
33
19
19
19
17
17
28
18
29
18
21
35
35
20
30
32
45
46
37
41
37
42
35
46
52
56
43
46
34
54
58
53
44
35
55
72
63
73
46
61
47
65
57
73
53
47
60
55
65
54
41
49
51
51
47
59
47
40
37
33
39
29
29
31
40
18
22
31
20
16
20
20
19
23
16
13
12
15
18
13
17
24
5
11
13
19
8
7
10
12
5
8
4
6
8
7
9
3
7
2
3
6
4
1
3
5
4
2
0
0
4
0
3
2
1
1
0
2
1
1
0
0
1
1
1
0
0
1
1
2
0
1
0
0
1
0
1
0
1
1
1
2
0
2
1
1
1
0
0
1
1
0
1
0
1
1
0
1
0
2
1
1
1
1
0
1
1
0
2
1
1
2
0
0
2
1
2
0
2
0
0
1
0
2
1
0
1
5
2
1
1
1
1
4
1
3
5
3
1
1
2
3
3
0
0
1
2
0
2
0
3
1
1
1
0
2
3
2
0
3
1
4
0
1
0
1
2
0
2
1
3
1
1
1
2
0
2
0
1
1
1
0
2
0
2
2
1
0
0
0
1
0
0
0
0
1
1
0
1
0
1
0
0
0
0
1
1
0
1
0
1
0
0
0
0
0
0
1
0
0
1
0
1
0
1
0
1
1
1
1
2
0
0
0
0
0
1
0
0
1
0
1
0
0
2
0
0
0
2
1
2
0
0
1
0
0
0
1
0
0
1
0
2
1
0
0
1
0
0
1
0
1
0
3
0
0
0
0
0
0
0
0
1
1
0
1
0
1
2
0
1
0
0
1
1
2
2
2
1
1
0
1
0
1
1
0
1
0
0
0
1
0
1
0
2
0
1
0
1
0
1
0
0
1
1
1
1
0
0
1
0
0
0
1
0
0
1
1
0
1
0
0
0
0
0
0
0
0
0
1
1
2
0
1
0
0
0
0
1
0
0
0
1
2
0
0
0
0
0
0
0
1
0
1
0
0
0
1
0
0
0
3
0
2
0
0
0
0
1
0
0
0
0
1
0
0
0
2
0
2
0
1
0
0
0
2
2
0
0
0
2
3
2
1
0
1
0
1
3
0
0
1
1
0
1
0
1
0
0
0
2
3
0
2
2
0
0
2
1
2
0
0
1
0
0
3
3
1
1
0
0
0
0
1
1
0
0
0
2
2
2
2
0
3
1
0
1
0
0
1
1
2
1
0
1
2
1
0
3
1
0
1
0
1
3
0
1
2
1
2
1
1
3
3
1
0
1
0
0
0
1
1
3
0
2
1
0
1
1
1
0
1
0
0
1
1
1
4
0
1
0
1
0
3
2
5
0
3
1
2
1
1
1
3
1
0
2
1
0
1
1
1
1
0
0
4
2
0
1
0
4
0
1
1
4
0
3
3
1
1
7
2
2
1
1
0
2
1
2
1
6
0
2
2
0
2
2
0
2
3
3
6
3
2
2
3
2
0
0
4
3
3
3
1
2
3
2
3
2
1
4
1
3
1
1
4
2
3
2
1
2
2
0
1
2
3
3
2
2
1
1
2
3
1
4
1
2
6
5
2
2
2
1
3
2
3
2
1
1
1
4
3
2
1
5
0
1
5
4
1
3
4
1
1
4
3
0
3
1
2
1
3
2
3
3
4
1
2
2
1
2
5
3
4
3
2
2
1
3
0
1
2
1
3
5
0
2
2
3
2
2
1
5
0
1
7
3
3
0
5
1
3
3
5
2
4
6
4
3
6
4
4
2
3
4
4
1
5
4
4
4
4
3
3
6
3
2
3
3
3
3
2
5
2
4
1
2
5
4
5
8
4
6
1
3
7
3
6
5
4
1
7
5
5
5
6
8
1
2
6
2
4
4
6
8
4
2
1
5
0
3
2
4
6
4
4
4
5
4
5
3
6
5
3
3
3
2
6
2
7
3
5
8
5
6
4
5
4
8
7
2
4
4
7
6
4
7
5
6
4
6
8
6
3
5
5
6
7
6
3
4
2
6
7
14
10
7
5
5
8
4
5
6
1
1
6
6
1
4
11
9
3
5
3
8
3
6
5
6
3
4
6
4
9
8
7
2
5
6
9
5
9
5
6
5
4
5
5
5
7
8
8
8
5
8
3
11
6
6
5
7
11
13
1
4
7
7
10
7
7
6
9
5
11
10
5
12
11
12
7
6
9
5
9
5
6
12
2
10
6
3
7
11
8
5
6
7
13
3
10
12
9
8
6
8
11
8
8
8
8
6
10
4
11
7
12
10
16
8
7
9
15
12
9
6
10
9
6
5
5
5
7
9
11
10
5
7
5
9
5
6
9
7
6
13
11
7
5
9
18
13
13
11
15
8
11
6
6
12
13
8
5
7
19
7
5
11
14
13
9
11
5
8
10
14
12
10
10
9
4
13
8
6
9
8
14
15
8
8
13
8
15
14
14
8
14
17
11
6
14
15
9
10
18
11
14
7
10
11
9
11
15
6
16
12
10
10
9
11
11
13
13
11
13
13
13
18
7
15
15
16
11
11
15
15
9
14
6
10
16
8
12
13
12
19
10
10
13
7
10
13
14
15
14
14
8
15
12
11
8
9
13
13
14
12
12
13
10
9
9
18
12
18
9
6
13
21
8
18
20
15
12
9
20
19
18
9
9
13
14
15
16
10
12
14
9
13
10
9
14
11
14
15
10
23
16
12
12
16
13
17
13
17
13
14
13
15
20
9
12
16
13
14
21
14
20
20
15
22
11
6
10
11
17
8
18
17
11
15
11
16
17
13
14
8
20
19
16
12
16
17
17
10
12
19
12
16
15
22
12
16
20
13
13
19
15
12
19
15
12
22
24
16
11
15
12
19
11
9
11
10
8
21
23
18
9
22
17
13
11
24
13
14
20
9
16
12
18
16
20
15
15
14
22
14
16
17
25
18
12
15
14
14
14
18
16
13
15
14
17
20
12
10
23
18
14
12
11
19
14
9
23
10
17
23
20
16
21
18
13
13
11
19
13
16
24
20
18
20
11
20
16
22
9
16
11
18
14
24
17
12
12
18
17
18
17
13
23
18
18
22
24
10
15
15
19
14
14
12
18
14
17
17
14
16
19
17
21
17
25
17
25
15
26
12
23
12
19
20
21
19
23
18
17
9
27
20
22
18
22
20
13
25
23
17
18
13
20
19
16
14
16
17
20
18
14
18
11
22
15
20
18
17
21
12
18
20
24
18
19
14
21
15
14
16
19
20
18
16
13
15
14
16
12
12
22
15
14
20
15
23
11
16
16
21
31
17
19
16
22
14
18
21
20
21
12
13
21
25
16
17
24
24
18
19
18
18
12
19
24
19
21
18
21
22
23
26
20
15
23
21
27
21
20
19
24
14
21
13
12
19
16
24
19
12
18
29
17
22
19
15
14
27
15
19
15
17
27
17
19
29
17
22
26
23
15
20
16
23
15
16
18
15
26
28
24
16
27
20
19
25
19
20
8
18
23
22
18
21
20
16
14
12
12
18
24
18
21
21
23
16
15
14
16
18
15
11
17
24
16
26
17
27
18
19
25
23
23
23
14
26
15
23
26
19
19
17
22
23
16
26
22
24
24
22
22
20
17
17
28
29
21
17
21
30
24
27
32
30
36
31
29
28
36
30
31
31
32
39
42
55
47
49
43
60
56
55
59
33
49
67
58
59
76
86
64
71
69
72
73
62
92
96
84
84
87
82
105
84
101
91
85
86
111
78
89
115
97
97
102
88
79
116
73
92
86
67
99
90
81
80
81
81
66
64
64
75
63
61
51
53
53
40
47
51
51
44
28
37
45
25
29
37
34
34
31
26
23
18
20
25
23
19
25
22
16
22
21
22
21
18
25
17
21
23
19
16
23
28
19
24
23
19
24
21
16
18
21
18
20
18
27
22
19
20
22
20
23
18
21
22
19
16
18
21
20
20
22
24
21
18
28
23
18
26
15
19
22
22
21
19
14
14
24
17
18
18
24
29
16
19
22
28
17
23
25
25
22
18
20
13
26
36
23
19
22
16
15
21
20
14
22
14
24
23
15
27
21
20
20
23
23
11
15
29
12
21
14
21
24
20
20
20
31
18
16
13
23
25
16
19
17
22
20
14
28
28
18
21
14
18
24
23
15
21
23
24
17
22
18
13
16
14
22
15
12
21
21
16
15
27
16
30
25
27
12
17
21
20
19
14
10
21
21
26
20
17
31
24
20
16
21
17
21
24
20
21
16
19
26
21
14
18
27
19
12
14
22
15
15
16
17
23
14
18
14
25
12
23
17
22
16
18
17
18
13
17
24
17
19
15
23
22
13
15
18
12
24
16
12
15
32
18
13
21
15
19
19
28
14
17
21
17
17
23
16
16
17
20
21
22
12
26
20
20
7
16
21
19
19
21
11
19
24
18
21
18
13
20
25
13
23
25
20
31
28
16
19
19
24
23
32
31
37
22
17
25
24
26
28
29
31
21
28
26
35
29
34
27
35
41
27
25
36
25
25
31
36
22
30
29
25
39
25
27
13
15
22
16
21
22
31
21
17
11
28
30
8
15
23
18
15
25
22
18
14
15
21
21
22
16
13
20
19
22
17
14
15
16
23
19
25
15
12
16
26
15
17
15
21
24
26
21
14
13
14
22
21
21
26
18
20
19
19
21
25
18
11
18
18
25
20
19
13
18
23
11
13
13
23
13
26
16
21
17
12
23
16
20
21
16
14
13
6
18
12
13
7
13
13
17
16
13
13
24
15
14
16
18
16
10
17
18
22
19
14
12
13
11
16
19
15
18
19
14
11
13
19
10
13
13
15
15
12
9
15
16
16
21
21
12
17
11
11
16
10
17
24
12
17
17
15
9
14
14
15
15
17
17
17
15
14
9
9
16
15
16
16
13
11
17
14
12
17
16
14
15
14
8
14
14
8
10
18
16
7
16
15
12
19
13
10
15
18
16
17
14
16
10
19
14
16
13
10
11
9
13
12
10
18
15
17
14
12
21
16
13
20
14
8
17
20
6
9
4
12
7
8
10
13
8
8
15
13
11
11
10
9
15
8
13
11
13
13
15
11
15
6
9
12
13
11
14
13
13
11
20
13
19
19
17
13
9
12
12
16
21
15
11
17
13
10
14
14
12
9
11
10
13
11
9
22
6
6
9
12
10
11
12
12
12
8
14
10
13
16
8
7
10
11
10
11
16
15
11
9
15
8
15
14
16
12
13
14
13
12
14
11
19
10
8
8
10
10
14
18
11
8
12
10
4
8
11
9
11
16
5
8
16
4
9
10
14
16
10
10
11
14
11
8
10
12
5
15
11
8
10
8
6
4
13
6
8
11
10
16
8
15
13
6
10
7
10
14
17
12
11
7
8
8
14
11
13
11
12
16
9
8
9
10
9
13
4
13
9
8
6
10
7
9
4
14
12
8
8
8
5
20
8
5
4
9
14
7
6
13
14
9
12
6
9
12
15
11
4
13
10
5
6
10
11
13
9
9
5
8
4
10
8
7
11
11
11
11
9
12
7
10
2
10
6
9
7
13
9
13
6
6
11
3
5
8
4
9
7
12
13
8
8
8
6
8
6
10
10
7
9
10
7
11
8
8
6
10
13
11
11
9
4
5
7
7
10
7
9
7
4
13
3
5
8
0
2
4
6
4
6
9
6
10
8
4
6
7
7
7
10
4
12
6
7
7
12
6
8
9
7
8
7
6
10
14
6
9
3
13
6
10
7
6
5
7
7
10
5
9
4
8
10
5
7
3
6
3
7
8
11
10
3
6
10
8
4
6
3
9
4
7
6
7
3
6
5
5
5
10
7
5
7
6
8
5
3
5
3
5
5
8
3
1
4
2
2
4
10
6
4
4
6
5
3
3
1
4
6
4
7
5
9
2
6
5
5
4
3
5
2
4
5
3
6
4
2
6
8
5
1
4
0
1
4
6
4
6
4
5
4
3
2
2
3
2
4
2
8
2
4
4
5
5
3
5
4
4
2
3
2
3
3
1
3
7
5
4
4
5
3
5
1
3
1
6
2
2
1
1
1
4
4
2
3
1
1
6
3
2
2
1
6
2
3
1
3
1
4
0
2
0
3
3
1
4
1
1
1
0
3
4
2
1
3
0
1
2
0
3
2
1
0
4
2
1
2
2
1
4
2
2
0
1
3
1
2
3
1
1
1
0
0
1
1
0
0
0
1
1
2
0
0
0
0
2
2
1
0
0
0
1
0
1
3
1
0
0
0
1
2
1
2
0
4
0
3
1
1
1
0
1
0
1
1
2
1
1
1
1
1
2
0
0
1
0
1
2
1
1
0
0
3
0
1
1
1
0
1
0
2
1
0
0
0
1
0
2
1
0
0
0
2
0
0
1
0
1
0
1
1
1
2
0
1
1
1
0
1
1
1
1
0
0
0
0
0
1
1
0
0
0
0
0
2
0
1
1
1
1
1
1
0
0
0
1
0
1
0
0
0
0
0
0
0
0
1
0
1
0
0
0
0
1
0
0
0
1
0
0
0
1
1
1
0
0
1
1
0
0
0
0
0
0
2
0
0
0
1
1
0
1
0
1
1
0
0
0
0
0
0
0
1
1
1
1
0
0
0
0
0
0
0
0
1
0
0
0
0
0
2
0
0
2
0
1
0
0
0
0
1
0
1
0
0
1
0
0
0
0
1
0
0
0
0
0
1
0
0
0
0
0
0
0
1
0
0
1
0
0
0
0
0
0
0
0
0
0
0
0
0
0
0
1
0
0
1
0
1
0
0
1
0
0
0
0
1
0
1
1
0
0
0
0
0
1
0
0
0
1
0
0
0
0
0
0
1
1
0
0
0
0
1
0
1
0
0
0
0
1
0
0
0
0
0
0
0
1
0
0
0
0
0
0
0
0
1
0
0
0
0
1
0
0
0
0
0
0
1
0
0
0
0
0
0
0
0
0
0
0
0
0
0
0
0
0
0
0
1
0
0
0
0
0
0
0
0
0
0
0
0
0
0
0
0
0
0
0
0
0
0
0
0
0
0
0
0
0
0
0
0
0
0
0
0
0
0
0
0
0
0
0
0
0
0
0
0
0
0
0
0
0
0
0
0
0
0
<<END>>
<<DPP CONFIGURATION>>
COM Port: USB
Rise: 3.2uS
Top: 0.2uS
Fast Threshold: 11
PUR Enable: PUROn
RTD ON/OFF: RTDOn
RTD Threshold: 3.13% FS
RTD Fast HWHM: 10
AutoBaseline: Off
BLR: BLR:ON DN:16 UP:4 
Acquisition Mode: MCA
MCS Timebase: 10mS/channel
MCA Channels: 4096
Slow Threshold: 1.17% FS
Buffer Select: Buffer A
Gate Input (TTL): GateOff
Preset: 1 min
Coarse Gain: 110.29x
Fine Gain: 1.0000
Input Polarity: Negative
Input Offset: 0.010V
Pole Zero: OFF
Det Rst Lockout: 1.64mS
TEC: 230.0K
HV: 180.2V
Preamp Power: 8.5V
Analog Out: Shaped Pulse
Offset: 101mV
Aux: ICR
Audio: Off
<<DPP CONFIGURATION END>>
<<DPP STATUS>>
Device Type: PX4
Serial Number: 1567
Firmware: 4.04
FPGA: 4.07
Fast Count: 100658
Slow Count: 98722
Accumulation Time: 60
Dead Time: 1.99%
HV Volt: 178V
TEC Temp: 230K
Board Temp: 31°C
<<DPP STATUS END>>
