<<PMCA SPECTRUM>>
TAG - live_data
DESCRIPTION - 
GAIN - 4
THRESHOLD - 0
LIVE_MODE - 0
PRESET_TIME - 60
LIVE_TIME - 57.348000
REAL_TIME - 60.000000
START_TIME - 03/16/2026 10:43:50
SERIAL_NUMBER - 1567
<<CALIBRATION>>
LABEL - Channel
1446.37 13.95
1837.93 17.74
<<ROI>>
753 758
763 768
1416 1476
1803 1875
<<DATA>>
0
0
0
0
0
0
0
0
0
0
0
0
0
0
0
0
0
0
0
0
0
0
0
0
0
0
0
0
0
0
0
0
0
0
0
0
0
0
0
0
0
0
0
0
0
0
0
0
1873
2748
1789
1162
749
515
368
257
201
145
122
95
108
76
85
99
80
71
55
71
62
49
74
51
50
59
46
45
43
37
37
37
39
43
38
34
30
23
35
34
26
38
24
21
18
24
16
29
31
35
22
16
25
21
22
20
17
17
24
22
23
24
15
14
18
15
19
21
15
11
16
14
16
21
13
15
3
17
9
20
1
3
0
7
1
4
3
3
2
5
1
5
6
4
4
3
6
5
2
2
3
4
6
6
6
9
4
4
3
3
2
6
7
2
2
2
7
1
4
10
2
5
7
4
4
1
4
5
2
8
4
0
3
2
7
5
2
6
4
7
2
2
6
4
4
5
5
3
9
4
3
1
6
3
4
6
6
4
2
2
4
4
2
5
2
3
3
5
4
0
3
5
0
6
3
4
3
3
6
1
5
4
4
4
5
4
4
6
4
3
6
4
6
4
2
2
2
5
7
3
5
9
4
0
1
1
2
5
4
3
2
2
7
6
2
5
6
3
6
2
4
3
3
10
6
5
4
4
4
3
2
4
6
5
2
4
4
5
4
4
9
2
2
5
5
2
5
4
6
0
4
5
3
4
4
5
3
3
3
7
5
2
3
10
6
3
2
3
3
4
2
2
3
2
4
3
1
5
3
4
8
2
1
2
2
2
4
6
3
1
1
4
3
0
3
0
7
4
1
6
2
1
3
1
2
1
1
1
1
1
4
0
3
1
3
1
2
4
2
2
1
4
2
3
5
0
1
2
4
3
2
3
4
1
2
1
2
1
3
1
2
2
2
3
0
1
1
3
4
3
2
3
3
0
1
1
0
1
3
1
3
2
0
2
1
1
6
0
3
1
4
3
0
3
2
1
0
1
1
0
1
1
1
0
0
2
1
3
3
3
1
0
1
3
2
5
2
1
3
4
1
0
1
2
7
0
2
3
1
6
3
4
1
2
3
1
5
3
0
2
1
2
0
0
2
0
2
0
2
3
1
0
1
4
4
2
0
1
2
1
2
2
4
2
0
2
1
1
2
3
4
4
4
4
5
3
8
4
3
9
12
8
13
9
8
11
15
7
14
9
17
12
11
17
16
15
10
13
27
12
11
13
17
18
14
20
13
9
17
8
13
21
10
7
12
10
8
9
4
12
8
7
8
8
3
6
3
3
2
2
3
3
3
4
2
5
6
2
6
1
5
6
4
3
5
3
3
4
3
6
6
8
3
7
4
5
6
2
1
2
3
4
5
7
7
0
3
4
4
3
7
2
2
1
2
4
3
5
4
0
3
2
2
3
4
3
2
4
0
2
2
1
0
4
3
1
0
3
1
3
3
2
4
3
2
3
3
3
2
1
4
2
2
3
2
1
5
10
8
4
5
7
4
10
7
10
7
11
10
9
6
10
10
8
6
14
8
9
14
9
8
8
7
10
6
13
13
13
10
9
8
7
9
9
10
7
4
9
8
9
7
4
3
7
6
6
6
4
4
2
1
2
1
4
4
4
2
6
0
3
6
5
2
0
1
1
2
1
1
5
1
6
4
6
6
6
4
5
1
3
7
9
5
7
4
5
3
6
7
4
7
4
2
3
4
8
11
8
5
3
3
4
7
6
9
4
7
9
6
8
6
6
7
5
2
6
5
2
3
8
6
7
2
5
8
11
5
5
4
8
4
6
6
7
7
6
5
9
9
7
11
3
8
4
3
14
9
4
11
10
16
13
10
7
11
22
18
29
31
39
56
56
65
68
117
121
143
194
197
227
302
356
403
438
491
539
605
682
703
750
855
860
948
998
958
999
1110
1119
1183
1213
1152
1185
1193
1255
1174
1215
1175
1152
1237
1123
1138
1113
1085
1014
955
979
950
860
802
710
695
668
582
513
473
430
386
344
288
242
214
185
165
149
117
86
79
64
59
56
38
33
26
23
22
25
29
13
21
21
13
19
16
18
18
22
18
27
34
34
25
34
37
33
39
49
57
60
80
105
88
106
127
114
124
151
146
196
177
208
213
224
243
264
234
244
250
262
245
230
308
266
286
277
261
273
297
268
247
277
213
226
244
223
198
215
200
185
175
146
145
145
120
120
92
85
74
60
59
56
45
33
34
39
40
27
28
23
21
11
24
22
18
22
21
16
18
24
21
28
27
34
31
20
23
31
29
20
22
35
38
46
36
37
32
27
27
27
40
39
30
52
43
36
33
30
34
41
29
22
38
38
32
36
36
41
36
34
42
26
27
32
27
28
21
28
24
31
17
28
18
23
18
22
21
22
24
21
19
17
9
20
12
10
10
14
11
15
18
12
10
9
3
6
8
5
7
6
11
9
10
3
5
3
3
4
0
2
2
1
2
1
0
3
5
0
0
3
0
2
2
0
1
0
1
0
1
1
2
1
1
2
0
0
0
1
0
1
2
0
2
1
1
0
1
0
1
0
0
0
1
0
1
0
1
2
0
0
0
0
0
0
1
2
0
0
0
0
1
1
3
2
2
2
1
1
3
1
1
1
1
0
1
1
2
2
3
2
1
0
1
1
1
2
1
0
0
2
2
2
1
4
1
0
1
1
1
2
5
2
2
0
0
1
3
1
1
2
1
0
1
0
1
1
0
0
0
1
0
1
3
0
1
0
0
1
1
0
0
1
1
2
2
0
0
0
1
0
1
1
1
1
1
0
0
0
0
1
1
0
0
1
1
1
0
0
1
1
0
0
0
1
0
0
0
1
0
0
1
1
0
0
0
1
0
0
1
1
1
1
0
1
0
0
0
0
0
1
1
0
2
0
1
0
0
0
1
0
0
0
0
0
0
0
0
1
0
0
0
0
0
0
1
0
1
0
0
0
0
0
0
0
2
1
0
0
0
1
0
0
2
1
0
0
0
0
1
1
1
0
1
0
1
1
0
1
3
2
0
1
0
0
0
0
0
0
0
1
1
1
1
1
1
0
0
0
0
1
1
0
0
3
1
0
0
0
0
0
0
2
0
0
2
0
1
0
0
0
2
1
0
0
0
0
0
2
0
1
0
0
0
0
2
0
1
0
1
2
0
1
1
1
1
1
2
0
1
1
0
0
0
0
1
1
0
1
0
0
1
0
1
1
2
1
0
1
0
1
1
0
0
0
2
0
0
1
0
1
0
1
0
0
0
3
0
0
1
2
2
0
0
0
0
1
0
1
1
1
1
1
1
0
1
0
0
0
0
0
1
3
1
0
1
0
2
1
0
1
0
1
0
1
0
0
1
2
2
1
0
2
1
0
0
3
0
3
0
3
0
0
0
1
0
0
0
1
0
2
2
1
3
2
1
1
0
0
1
0
1
0
0
0
2
1
1
2
1
2
0
1
1
2
0
0
0
1
0
2
1
2
3
1
0
4
1
1
0
0
1
1
1
0
1
1
0
1
2
3
1
3
0
0
4
0
2
1
0
2
1
1
1
2
0
1
1
1
1
1
4
0
1
2
2
2
2
1
2
3
1
1
1
1
2
0
0
2
0
3
2
2
1
1
3
3
2
0
1
2
2
0
2
1
1
2
2
0
0
0
2
1
3
1
1
2
5
3
2
0
2
4
3
2
1
2
0
1
2
2
3
2
2
1
2
2
3
0
2
3
1
1
3
3
1
2
3
3
4
3
4
3
3
0
1
3
4
3
2
0
3
2
2
1
3
2
3
0
0
3
3
4
0
5
1
0
1
2
3
1
4
2
2
1
4
2
1
7
3
0
7
5
5
4
5
4
2
4
2
4
5
1
5
4
1
1
4
3
1
2
2
4
3
2
4
3
1
3
1
2
2
6
2
5
4
4
4
5
4
3
3
4
2
5
3
6
4
3
3
3
6
4
4
2
2
7
5
4
6
2
5
5
2
4
4
0
3
7
3
3
2
6
8
2
4
2
2
4
3
5
1
8
4
7
4
7
2
4
2
7
3
2
9
3
7
3
5
5
2
8
3
3
3
6
3
4
7
5
6
4
2
4
7
5
4
4
6
6
3
6
2
6
2
5
4
1
5
4
8
2
7
4
11
6
7
2
3
2
2
4
3
5
5
7
2
8
5
2
8
4
5
4
2
11
5
9
8
5
6
4
6
5
8
9
3
3
4
5
4
5
7
7
3
5
4
3
5
2
10
10
5
10
3
8
5
7
4
9
6
3
3
4
7
11
3
5
5
5
6
6
8
6
5
8
8
3
6
3
9
10
6
8
7
11
6
7
5
5
9
11
8
5
8
3
5
6
10
3
11
5
9
4
14
8
3
8
15
6
10
2
9
7
9
15
7
11
6
4
9
2
8
10
8
10
10
8
6
6
9
7
8
10
7
10
9
8
7
4
11
5
8
8
5
10
6
8
12
10
11
10
14
7
9
10
6
10
7
5
8
7
11
7
12
9
15
5
5
4
13
7
3
10
10
5
4
10
7
13
16
9
4
10
10
9
10
7
7
10
10
8
8
9
11
10
10
9
14
9
11
12
6
8
7
9
12
3
10
6
9
12
5
12
12
7
11
9
10
16
5
16
12
21
12
10
8
14
14
12
11
12
10
15
12
11
12
9
13
12
15
15
14
14
10
20
7
8
10
12
13
6
10
14
15
11
9
13
14
16
11
14
9
12
18
9
9
14
9
13
12
13
27
14
10
11
9
16
11
16
11
2
11
19
9
9
15
18
9
14
9
16
9
14
11
11
10
18
15
6
8
14
12
14
15
10
9
15
11
6
14
16
16
9
10
13
5
14
18
9
11
17
14
7
13
17
15
11
13
8
10
12
16
7
7
20
16
19
10
16
21
13
17
17
12
20
12
13
16
13
14
9
15
13
15
16
16
19
16
11
11
20
14
11
15
16
17
15
12
9
12
18
8
7
13
13
23
12
23
14
13
19
9
21
21
16
17
16
14
16
14
14
14
11
21
15
14
19
16
13
17
13
11
14
13
15
18
15
17
16
18
17
10
13
24
11
13
19
11
14
10
22
12
14
19
14
18
18
13
17
10
16
22
16
21
16
14
18
15
15
14
15
12
15
13
13
26
15
12
14
12
9
19
14
12
23
18
15
13
19
18
13
17
14
11
22
25
15
19
18
11
13
19
15
17
13
15
12
15
19
14
19
13
10
10
20
18
11
18
13
16
13
25
13
19
22
21
25
11
21
18
22
15
19
20
17
13
17
15
15
12
18
26
13
17
9
16
14
12
21
14
23
11
20
22
18
26
18
21
9
18
19
23
22
16
24
22
14
25
16
18
13
22
15
14
19
18
18
25
19
23
24
18
17
18
15
17
16
22
17
14
22
15
23
17
20
14
15
14
27
19
18
14
14
19
15
19
17
24
20
12
23
13
20
15
18
22
21
20
18
20
12
17
12
17
17
20
13
21
19
23
16
15
13
20
20
14
22
22
29
18
24
22
17
18
12
15
19
18
23
20
19
15
17
22
21
22
29
24
22
20
15
20
18
20
14
17
10
29
21
22
20
23
17
20
16
13
17
14
24
25
14
21
14
20
20
24
26
24
16
16
20
20
17
18
20
22
20
19
14
23
17
10
15
20
22
20
19
18
25
17
18
18
21
17
25
20
25
23
17
21
14
17
23
11
22
27
24
25
28
23
25
21
25
19
26
24
17
24
22
18
24
27
20
22
22
21
25
24
20
16
19
18
22
16
14
16
22
13
17
26
19
16
21
18
26
32
16
23
19
26
22
16
26
22
21
16
15
20
27
21
25
8
28
24
18
19
29
23
16
15
23
18
16
17
21
19
18
17
19
14
21
19
21
22
20
22
23
13
22
19
20
23
20
26
37
24
17
22
24
21
28
18
22
18
18
18
23
30
32
18
26
23
13
18
26
30
20
14
21
21
31
24
24
32
26
30
24
26
23
15
21
25
27
25
21
19
25
19
29
26
21
20
31
18
32
24
20
26
25
19
24
22
15
25
24
33
24
22
10
22
20
24
19
16
17
25
16
25
17
25
26
15
20
19
24
19
19
19
15
21
17
18
22
18
17
17
23
21
18
15
15
10
19
27
27
19
17
25
15
20
23
22
19
14
20
21
18
23
25
26
27
17
26
19
22
14
27
23
20
23
21
25
18
22
20
19
21
18
26
15
17
19
18
30
19
26
20
14
26
18
21
19
21
21
20
17
25
32
24
12
22
16
23
17
27
17
17
16
20
16
16
26
22
19
22
20
16
29
15
17
20
25
16
27
21
18
24
27
19
17
10
16
23
17
23
17
21
20
23
20
26
19
13
13
22
18
25
12
18
14
16
21
18
21
15
20
25
16
16
29
20
12
23
15
13
28
19
14
13
19
17
18
14
18
23
19
17
18
30
17
18
22
15
27
26
20
24
18
36
12
14
16
16
14
20
18
22
16
19
16
20
22
22
21
14
17
18
19
13
22
24
17
18
23
20
24
17
31
23
17
17
20
14
15
21
21
17
18
18
25
20
28
29
25
21
26
18
20
24
18
19
22
23
17
18
24
15
21
16
17
22
13
14
20
16
13
19
16
14
16
13
14
19
17
16
17
21
21
20
17
19
12
18
9
10
24
23
18
21
17
21
21
19
26
20
23
18
19
14
25
19
9
17
13
19
24
15
20
16
20
20
21
19
22
21
22
13
32
19
16
29
13
17
28
15
22
14
24
15
18
14
13
15
25
15
14
17
24
19
18
24
14
21
16
18
13
14
11
18
15
23
13
18
18
16
14
17
20
19
19
11
16
13
15
18
20
16
15
16
16
20
17
17
21
15
16
18
12
17
22
11
19
18
15
20
8
21
15
21
16
16
15
16
7
12
24
24
9
14
11
16
14
18
18
29
14
19
10
23
11
18
13
20
16
22
19
14
20
25
14
14
16
12
17
20
17
19
12
23
13
17
10
7
16
19
17
22
12
12
18
18
12
27
16
21
12
19
16
21
17
17
10
13
16
19
20
17
20
16
23
21
23
17
16
18
12
13
12
13
16
22
16
12
15
12
12
19
16
11
12
13
17
12
15
13
14
19
13
14
27
15
17
15
14
14
14
18
17
18
21
13
17
12
18
6
16
10
11
15
12
16
23
16
22
15
12
18
5
10
12
13
17
19
19
15
10
7
10
10
20
14
15
13
21
10
7
15
15
17
16
16
15
13
15
9
11
12
11
12
18
8
17
15
12
17
10
11
15
10
14
9
11
19
17
13
19
13
13
13
15
9
21
14
16
15
17
17
12
17
13
11
9
12
11
9
15
12
12
11
18
19
14
16
7
8
13
10
15
9
21
10
11
13
17
11
7
13
13
15
12
16
17
17
14
13
10
15
13
11
15
7
11
11
10
16
12
11
17
13
8
14
12
12
16
20
5
12
8
11
9
9
14
11
11
14
12
11
14
7
12
9
11
12
9
7
15
10
9
9
11
15
12
10
16
8
13
15
11
12
11
11
11
9
14
12
14
12
10
17
9
11
12
6
7
11
10
16
5
11
10
11
10
6
14
13
12
16
9
9
15
13
15
5
10
14
7
10
9
7
11
15
12
6
14
14
9
13
9
12
10
14
14
3
11
10
14
7
8
10
6
8
9
9
14
8
6
10
14
8
17
13
9
13
11
9
9
11
5
11
9
12
16
9
13
9
3
7
6
12
13
11
7
7
8
19
6
8
14
8
9
9
9
5
9
6
7
17
8
11
6
9
7
9
10
9
12
10
14
8
4
8
6
6
5
11
9
15
10
6
8
4
9
9
8
12
13
7
12
4
10
11
8
6
8
4
12
7
8
5
5
9
6
7
12
6
7
3
7
4
15
6
12
5
4
9
5
10
9
5
1
7
9
9
7
16
8
6
1
12
5
4
4
9
10
6
11
9
6
10
4
10
3
9
5
5
5
7
7
3
6
9
7
10
10
7
9
3
11
8
9
9
4
4
7
8
6
7
8
3
10
6
8
9
4
5
8
6
0
4
4
4
5
9
10
6
6
9
6
6
5
7
3
4
4
0
3
5
7
4
5
8
5
5
5
4
4
5
0
2
5
6
5
4
3
9
7
6
4
4
1
6
6
6
7
3
3
6
7
9
5
2
6
7
10
5
5
4
2
1
3
3
6
2
7
3
3
3
3
3
5
0
4
3
4
3
3
2
3
2
6
3
2
3
1
1
5
2
3
2
2
5
4
3
2
2
5
5
3
5
4
4
2
1
5
0
1
2
5
2
3
2
5
1
2
2
4
2
2
2
0
0
0
2
4
3
2
5
2
1
0
2
0
3
4
1
3
0
2
4
2
2
2
1
2
3
1
1
2
4
1
2
2
1
1
2
6
5
1
2
2
3
0
1
0
2
2
1
1
2
2
2
0
1
4
1
2
3
1
1
0
1
1
1
1
0
4
1
2
1
2
0
0
2
0
3
2
1
0
0
1
2
2
0
0
5
1
1
1
1
0
0
3
1
0
0
2
0
2
0
3
0
1
0
1
2
2
1
0
1
1
2
0
2
0
0
1
1
0
3
1
2
0
1
0
0
0
2
0
0
0
1
0
2
0
0
0
0
0
1
0
1
0
1
0
0
1
0
0
0
1
0
0
0
0
1
0
0
2
0
0
0
0
0
0
1
0
0
0
0
0
0
0
0
1
0
0
1
2
1
1
1
1
0
1
1
0
1
1
1
0
0
0
4
0
0
0
0
0
0
1
2
0
1
0
0
0
1
0
0
0
0
0
0
0
1
1
0
0
0
1
1
0
1
1
1
0
1
1
0
0
0
0
1
0
0
0
2
0
0
0
0
0
0
0
0
1
0
0
0
0
0
1
0
0
1
0
1
1
0
0
0
0
1
0
0
0
1
0
0
0
0
1
0
0
0
1
0
0
0
0
0
1
1
0
0
0
1
0
1
0
0
0
0
0
0
0
0
0
0
0
0
0
0
0
0
0
0
0
0
0
0
0
0
0
0
1
0
0
0
0
0
0
0
1
0
0
0
0
0
0
0
0
0
0
0
0
0
0
0
0
0
0
2
0
0
0
0
0
0
0
0
0
0
0
0
0
1
0
0
0
0
0
0
0
0
0
0
0
0
0
0
0
0
0
0
0
0
0
0
0
0
0
0
0
0
0
0
0
0
0
0
0
0
0
0
0
0
0
0
0
0
0
0
0
0
0
0
1
0
0
0
0
0
0
0
0
0
0
0
0
0
0
0
0
0
0
0
0
0
0
0
0
0
0
0
0
0
0
0
0
0
<<END>>
<<DPP CONFIGURATION>>
COM Port: USB
Rise: 3.2uS
Top: 0.2uS
Fast Threshold: 11
PUR Enable: PUROn
RTD ON/OFF: RTDOn
RTD Threshold: 3.13% FS
RTD Fast HWHM: 10
AutoBaseline: Off
BLR: BLR:ON DN:16 UP:4 
Acquisition Mode: MCA
MCS Timebase: 10mS/channel
MCA Channels: 4096
Slow Threshold: 1.17% FS
Buffer Select: Buffer A
Gate Input (TTL): GateOff
Preset: 1 min
Coarse Gain: 110.29x
Fine Gain: 1.0000
Input Polarity: Negative
Input Offset: 0.010V
Pole Zero: OFF
Det Rst Lockout: 1.64mS
TEC: 230.0K
HV: 180.2V
Preamp Power: 8.5V
Analog Out: Shaped Pulse
Offset: 101mV
Aux: ICR
Audio: Off
<<DPP CONFIGURATION END>>
<<DPP STATUS>>
Device Type: PX4
Serial Number: 1567
Firmware: 4.04
FPGA: 4.07
Fast Count: 104663
Slow Count: 100106
Accumulation Time: 60
Dead Time: 4.42%
HV Volt: 178V
TEC Temp: 230K
Board Temp: 31°C
<<DPP STATUS END>>
