<<PMCA SPECTRUM>>
TAG - live_data
DESCRIPTION - 
GAIN - 4
THRESHOLD - 0
LIVE_MODE - 0
PRESET_TIME - 60
LIVE_TIME - 58.524000
REAL_TIME - 60.000000
START_TIME - 03/16/2026 10:39:46
SERIAL_NUMBER - 1567
<<CALIBRATION>>
LABEL - Channel
1446.37 13.95
1837.93 17.74
<<ROI>>
753 758
763 768
1416 1476
1803 1875
<<DATA>>
0
0
0
0
0
0
0
0
0
0
0
0
0
0
0
0
0
0
0
0
0
0
0
0
0
0
0
0
0
0
0
0
0
0
0
0
0
0
0
0
0
0
0
0
0
0
0
0
2016
2909
1850
1217
769
548
356
273
142
146
127
104
99
92
60
76
56
58
82
59
43
57
48
47
48
53
36
51
27
49
41
31
42
41
28
33
27
27
24
30
26
21
24
30
24
27
25
21
22
22
15
19
19
16
21
17
23
14
19
15
11
19
12
14
12
15
18
16
15
18
18
16
17
13
14
12
8
13
11
9
3
3
2
3
3
1
7
1
1
7
3
5
5
4
2
2
0
2
2
4
2
9
7
2
3
3
5
2
2
4
3
8
8
9
6
3
6
3
2
4
2
5
3
4
6
5
2
2
7
4
4
5
7
5
2
4
3
5
2
5
2
7
2
3
4
3
3
2
2
2
1
2
2
5
2
4
4
3
7
4
5
4
6
4
4
6
3
5
4
2
2
3
4
6
3
8
4
5
2
1
4
4
8
4
6
3
5
3
5
3
1
4
2
5
0
5
2
1
2
3
6
1
1
5
3
4
4
4
11
6
3
7
2
3
4
1
4
1
6
4
3
3
3
0
9
4
3
1
6
3
0
0
4
5
5
3
3
2
2
3
5
2
6
3
7
0
4
3
1
4
6
2
1
0
4
2
2
2
2
3
3
3
2
1
4
4
4
1
4
4
4
0
2
1
4
4
3
1
1
1
5
0
3
6
5
7
1
1
3
2
5
2
1
2
2
2
0
3
2
3
0
2
4
3
1
3
2
2
2
5
1
1
1
2
2
2
1
1
0
2
2
4
2
0
1
2
0
1
1
4
2
2
3
1
1
5
3
2
3
2
1
3
0
3
3
2
1
3
3
2
3
1
1
1
0
0
2
0
1
0
3
1
1
1
0
3
1
0
0
2
2
0
3
1
2
1
2
3
3
2
0
2
1
2
2
1
0
1
2
0
1
0
1
2
0
0
2
1
0
3
0
1
0
3
0
2
1
1
0
0
0
0
0
2
0
1
2
0
3
2
1
1
3
1
3
0
1
3
2
3
3
1
4
3
3
3
3
1
2
1
1
4
3
4
8
1
5
2
3
6
3
1
4
0
0
3
5
2
2
2
5
2
0
3
4
1
4
4
3
3
2
4
1
2
2
1
2
5
2
4
3
5
4
1
2
5
3
1
2
6
4
5
3
6
3
2
4
2
3
1
7
2
1
1
2
1
1
3
1
1
0
3
2
3
4
0
0
1
1
5
3
0
1
3
0
0
2
0
1
0
1
2
1
0
0
1
2
2
2
1
5
1
3
1
3
2
2
1
5
1
0
2
2
0
1
1
3
3
0
0
3
2
3
1
1
3
3
5
5
2
1
2
1
2
6
4
3
2
1
1
1
1
1
1
1
4
1
5
2
2
2
1
6
2
3
3
4
3
3
4
7
4
8
6
5
11
6
15
9
6
7
9
11
6
10
6
7
14
10
17
13
19
13
15
19
19
19
14
15
19
15
15
17
16
14
12
14
8
12
8
15
11
6
13
6
7
14
7
8
3
3
5
1
3
1
2
0
1
2
2
4
0
4
5
5
5
5
4
1
5
5
4
6
5
7
3
6
9
6
5
9
10
13
8
9
16
14
8
9
15
7
9
11
12
7
11
12
17
14
26
19
23
29
41
34
33
41
48
64
62
82
116
122
145
148
159
213
213
232
261
308
321
310
366
391
332
366
434
450
443
457
393
454
493
457
478
432
463
430
461
437
469
406
392
410
381
350
343
327
333
307
258
276
220
228
186
174
166
140
124
111
128
120
106
96
98
99
109
125
132
125
168
189
200
233
273
294
332
345
363
388
443
430
471
518
496
547
519
557
575
577
608
583
583
639
606
591
576
582
573
564
571
559
554
558
531
541
491
497
432
446
430
393
340
309
323
300
276
236
207
254
171
186
172
155
163
121
124
124
100
102
85
79
72
73
50
53
52
36
40
35
36
26
23
16
14
14
8
18
8
12
7
7
13
11
12
7
6
6
12
7
15
7
13
14
14
24
19
32
16
20
16
16
23
15
31
21
27
22
32
24
19
32
31
26
23
27
23
33
20
25
29
35
23
26
31
15
17
22
14
21
11
17
10
17
13
9
8
13
14
13
9
12
17
22
20
20
11
10
10
20
14
20
17
22
27
16
19
18
18
25
22
28
31
30
16
35
21
34
28
23
39
28
41
38
37
30
33
33
29
44
32
40
33
32
45
37
31
34
29
31
36
36
33
38
39
33
38
36
30
37
41
33
34
35
36
20
26
27
27
23
23
22
24
23
17
16
11
17
19
23
17
14
7
15
18
15
12
15
10
10
11
9
13
12
3
14
6
5
7
7
4
6
3
5
3
3
4
3
4
1
0
1
1
3
3
1
1
1
0
1
2
1
2
1
0
0
1
0
0
1
0
0
1
1
0
1
1
0
0
0
1
3
0
0
0
4
1
0
0
0
0
1
1
1
0
1
2
1
2
1
0
0
0
1
1
0
2
1
2
0
2
1
4
3
0
2
0
2
1
1
1
1
2
2
2
0
2
1
0
0
1
1
1
0
0
0
2
1
2
1
1
0
1
2
0
2
1
2
3
0
2
1
1
0
2
3
0
0
3
1
1
0
0
0
1
1
1
2
0
0
0
0
0
1
1
2
2
0
3
0
0
1
1
0
0
0
1
0
1
0
0
0
2
1
0
0
0
0
0
1
0
1
1
0
0
0
0
0
0
0
0
1
2
1
1
1
1
0
1
0
1
1
1
0
0
1
0
0
0
1
0
0
1
1
0
0
0
0
1
1
1
1
0
1
1
0
1
1
1
1
0
0
1
1
1
0
0
0
1
0
3
1
0
0
0
2
0
0
0
1
0
0
0
0
1
1
0
0
0
2
0
1
0
0
1
0
0
1
1
0
1
0
0
0
1
3
0
0
0
0
0
0
1
1
0
1
0
2
0
0
0
2
1
2
2
0
0
1
1
1
0
0
0
0
0
0
0
0
0
1
0
0
0
0
1
1
0
0
0
0
3
1
3
1
0
0
1
0
0
0
1
0
1
1
1
0
0
0
0
1
1
0
0
1
0
0
0
0
0
1
0
0
0
1
0
1
0
2
0
2
1
0
0
0
2
0
0
1
0
0
0
0
0
0
1
3
0
0
1
2
0
0
0
2
1
1
2
2
0
0
1
1
1
0
1
1
1
0
1
0
0
1
0
1
2
0
1
0
0
0
1
0
0
0
0
1
1
0
0
0
0
1
0
0
0
1
0
1
0
0
1
0
0
2
3
0
1
0
1
0
0
4
1
1
0
0
0
0
0
0
0
2
1
0
3
1
4
0
0
0
0
0
0
0
0
1
1
2
2
2
0
2
1
0
0
1
1
1
0
2
2
3
2
1
1
1
1
0
2
0
0
1
0
0
0
1
1
0
0
2
3
2
1
1
1
1
2
2
0
1
3
1
2
1
1
2
1
0
0
2
0
2
1
2
2
2
3
1
0
0
3
3
0
2
2
2
3
1
2
2
1
2
3
3
1
1
2
2
0
3
1
2
4
3
1
5
0
3
5
1
7
4
3
3
0
1
1
0
2
1
0
2
1
1
0
5
2
3
4
3
2
2
4
2
0
1
5
1
1
2
2
3
2
0
2
2
2
5
3
3
2
2
2
3
7
3
2
3
1
2
6
5
1
1
0
1
1
3
1
3
3
2
1
2
1
5
2
3
4
2
1
1
5
1
1
4
6
4
3
3
2
4
0
0
0
4
1
1
3
2
5
2
4
5
3
3
3
3
3
2
2
5
5
5
2
4
3
4
1
2
1
3
6
6
4
2
2
7
0
2
2
3
5
4
3
2
1
3
3
3
5
2
4
2
5
3
3
5
3
3
3
4
4
3
6
3
3
7
4
2
4
4
3
4
8
8
3
6
5
5
2
4
2
2
3
4
4
2
6
5
8
2
3
7
3
4
6
2
5
3
4
6
6
2
3
9
3
2
2
3
7
5
8
2
6
6
3
10
3
7
3
2
3
8
7
6
7
2
5
2
5
5
5
1
6
2
3
4
4
8
5
1
14
6
7
3
5
3
5
5
5
8
8
9
5
2
11
8
6
7
7
10
4
5
2
8
7
4
3
7
6
6
7
4
11
6
6
7
5
2
7
2
4
8
8
11
9
12
6
7
5
6
7
3
6
7
7
5
5
5
4
6
9
10
6
8
6
4
8
7
4
11
8
8
10
8
6
7
9
6
6
8
6
8
8
11
3
7
11
5
7
13
7
4
6
7
10
6
11
11
8
6
6
8
10
7
8
12
9
7
12
12
9
4
5
15
6
9
4
9
9
6
9
11
12
3
10
8
10
7
9
9
8
7
9
8
10
13
8
7
13
11
10
12
6
5
9
12
7
9
7
10
7
5
7
6
6
18
8
9
10
5
2
12
9
10
10
3
9
10
8
11
5
12
13
11
9
11
12
6
11
7
7
8
7
11
8
10
9
10
9
15
9
13
14
9
15
9
16
13
7
17
12
13
8
13
10
13
12
13
8
8
9
10
10
7
5
4
15
14
10
16
7
13
11
10
9
10
14
10
16
9
13
13
21
13
10
14
20
9
8
8
12
14
17
9
11
8
15
19
10
13
13
12
10
18
9
15
12
11
11
16
10
11
11
13
12
12
13
19
8
11
9
19
20
12
11
15
15
10
15
14
19
9
13
16
16
19
18
16
10
6
11
16
15
11
17
14
15
13
18
15
15
11
5
13
10
14
14
9
16
16
13
9
10
16
7
15
13
12
13
17
15
14
18
11
11
19
12
10
11
16
9
18
13
6
17
16
21
15
15
10
13
22
16
18
13
14
14
17
18
15
20
18
16
16
8
10
22
16
14
12
14
21
14
17
13
14
10
12
22
15
16
12
11
12
18
9
18
14
16
11
13
11
14
14
20
11
17
6
14
20
15
16
17
18
19
16
16
20
14
14
6
11
16
21
18
13
17
14
12
18
12
18
16
19
15
15
17
23
20
13
16
18
18
11
15
17
19
24
11
14
14
13
19
16
16
12
24
17
18
18
16
9
17
19
16
17
12
14
24
13
22
11
22
16
25
14
12
20
16
12
14
16
15
15
17
16
15
14
16
17
21
16
17
15
15
17
28
20
16
20
14
22
10
13
15
24
19
24
27
18
15
20
15
14
18
17
16
16
26
23
17
13
21
19
16
16
21
17
14
14
18
15
14
14
20
12
24
19
19
24
19
17
21
18
21
25
21
18
18
19
14
19
20
26
17
15
21
26
16
20
21
26
24
20
20
18
25
19
24
26
23
19
18
12
14
16
22
14
14
23
16
15
15
20
18
16
14
23
19
17
12
13
24
18
17
13
16
23
22
17
25
11
18
22
20
14
15
21
22
21
21
22
21
20
18
17
20
18
14
24
12
14
26
18
12
19
21
15
9
27
21
15
19
29
15
27
13
22
16
23
19
16
15
19
21
20
17
24
24
16
20
22
19
17
19
27
22
20
20
26
24
17
25
22
15
19
21
20
25
19
24
19
15
25
21
18
16
18
21
24
19
21
14
13
18
16
13
22
21
26
13
23
23
23
20
14
13
15
20
18
23
17
27
17
15
18
19
14
23
18
21
21
28
25
24
19
18
21
21
8
18
15
14
15
22
18
18
20
22
17
17
20
23
32
22
19
23
20
14
26
18
19
19
23
19
26
21
14
13
38
24
14
21
22
21
18
15
18
19
21
13
22
16
15
22
23
21
22
19
16
23
18
12
30
21
18
17
25
23
29
23
20
16
18
24
16
29
23
22
34
20
15
18
23
28
16
16
22
12
19
25
25
25
28
35
23
23
19
29
20
28
15
26
21
22
18
23
28
19
18
27
23
16
27
20
23
25
24
30
20
22
15
19
21
18
18
23
19
24
20
17
20
20
9
19
27
20
18
19
16
18
19
13
12
24
16
22
23
24
30
17
22
12
7
18
34
19
20
26
27
17
24
23
26
22
22
27
18
30
23
19
19
21
17
20
19
13
17
11
31
12
18
16
16
20
21
23
21
29
18
22
29
13
20
12
28
23
22
20
25
26
14
18
17
13
12
21
17
21
19
29
21
26
15
21
17
15
16
14
18
11
22
23
19
23
18
17
27
16
18
24
21
28
23
14
33
16
26
19
23
11
13
21
21
19
18
23
15
21
22
22
20
23
19
21
23
19
14
10
14
13
20
25
21
29
19
17
14
17
16
18
20
25
15
16
18
23
23
21
19
21
24
15
22
24
26
20
22
9
19
21
22
21
29
17
30
19
17
20
13
16
18
19
18
26
14
25
25
20
15
20
16
23
20
16
12
21
15
26
11
29
25
21
18
20
21
21
12
17
19
15
20
21
15
28
13
24
20
21
25
21
26
8
14
22
19
22
22
15
14
20
21
15
16
21
18
17
15
21
17
14
29
18
13
23
28
15
23
17
22
12
13
14
21
25
23
18
20
25
18
24
15
13
19
23
19
22
19
22
18
21
14
20
23
19
19
15
13
17
18
8
21
22
13
19
20
18
22
16
13
14
23
13
23
18
22
20
20
20
19
15
20
19
24
17
23
20
23
18
16
16
19
22
22
18
19
22
16
14
19
23
16
18
15
26
21
9
18
17
19
17
12
14
20
24
18
10
17
20
22
24
11
20
22
20
22
26
16
15
15
12
16
16
20
27
18
12
24
26
18
19
24
23
14
12
16
23
30
17
15
22
21
19
15
17
17
18
18
21
17
12
14
24
19
15
29
19
18
17
13
11
18
17
19
16
16
20
15
12
11
20
15
16
15
20
16
19
8
10
22
16
12
17
17
23
19
15
9
11
17
10
15
21
18
22
24
16
18
9
10
18
16
14
17
14
23
20
19
14
12
16
15
17
18
18
12
24
17
23
15
11
20
9
18
16
17
9
11
17
19
17
26
11
11
24
22
16
16
17
15
17
18
14
18
14
17
15
11
17
12
18
17
16
15
18
13
23
10
7
11
20
16
15
16
11
10
15
19
17
11
9
19
12
21
13
16
9
20
15
18
10
15
24
9
11
12
12
13
17
15
16
14
13
10
17
13
14
13
18
15
13
16
18
14
7
14
20
13
14
16
14
11
11
15
16
13
14
14
19
8
18
11
12
15
17
13
15
10
11
11
16
16
6
12
10
10
13
11
20
16
15
16
14
13
20
6
22
14
11
13
15
6
7
13
13
19
19
11
18
18
11
11
15
11
24
14
9
14
15
13
21
13
10
16
9
8
17
12
6
13
13
13
15
13
16
12
19
21
11
8
12
6
14
20
18
9
12
8
11
11
10
12
17
18
15
10
12
12
10
18
12
12
13
11
7
14
12
16
5
10
12
8
12
15
16
8
6
10
8
10
11
11
7
4
10
12
8
9
9
13
14
9
13
8
11
8
14
8
12
14
12
14
3
9
16
13
13
17
8
9
10
10
5
9
18
12
10
7
23
7
7
4
13
7
9
9
7
7
11
9
8
11
4
11
8
12
15
11
3
12
9
7
15
13
10
10
17
8
11
11
6
9
11
7
11
8
8
9
6
8
7
7
15
11
6
8
13
8
10
14
6
12
6
7
7
13
5
11
4
11
13
8
9
9
7
7
12
3
8
10
8
7
9
5
11
10
12
5
8
4
6
8
6
6
4
9
8
13
13
8
6
7
10
7
8
13
12
7
8
7
7
10
6
9
7
12
11
7
9
9
9
10
2
8
7
3
8
4
3
8
4
11
6
5
5
11
7
8
7
8
6
7
8
8
6
10
12
8
5
5
3
5
5
6
7
8
9
4
6
5
8
6
5
2
8
8
9
8
7
7
8
8
2
10
5
5
5
7
10
6
5
8
5
7
9
5
8
2
4
4
5
7
6
3
4
5
10
7
1
4
4
5
6
4
3
8
4
8
12
8
3
7
7
7
10
8
2
5
0
4
2
6
2
8
5
4
3
3
7
8
9
3
8
1
5
4
10
2
5
5
7
4
7
3
5
6
4
8
5
11
5
2
3
1
8
5
6
10
3
7
3
2
3
4
4
6
2
0
2
3
6
1
1
2
4
2
2
5
2
3
2
4
7
3
7
6
2
2
6
3
4
3
2
2
4
3
6
1
3
5
4
3
2
6
2
2
4
1
0
4
2
4
1
0
2
0
3
2
0
3
2
2
3
1
2
3
1
1
3
4
3
4
2
0
0
0
0
3
2
0
0
2
4
1
5
1
2
1
0
2
2
3
1
3
0
1
0
1
2
1
0
1
0
2
3
1
2
1
1
1
1
3
2
1
0
1
1
1
3
1
1
1
0
1
3
0
1
3
1
1
2
1
0
0
1
0
0
1
0
0
0
0
3
1
0
2
0
1
1
0
1
0
3
1
0
1
0
0
2
0
1
1
2
1
0
1
1
0
0
0
1
1
1
1
0
2
1
0
2
2
1
1
0
0
1
2
1
2
1
1
1
0
1
2
0
0
1
0
0
2
1
2
1
1
0
1
2
2
0
0
0
0
1
2
0
2
0
1
1
0
0
0
0
0
0
0
2
1
0
0
0
0
1
1
0
0
1
0
1
1
2
0
0
0
0
0
0
0
2
1
0
0
0
1
1
0
1
1
1
0
0
0
0
0
1
0
1
0
0
1
0
0
0
0
1
2
0
0
1
0
0
1
0
0
0
0
0
0
1
0
0
1
0
0
1
0
0
0
1
0
0
1
1
0
1
0
0
0
1
1
0
1
1
0
0
0
2
0
1
0
0
0
0
0
1
1
0
0
0
1
1
0
0
0
1
1
0
0
1
0
1
0
0
0
0
0
0
0
0
0
4
0
0
0
0
0
0
0
0
1
0
0
0
0
0
0
0
1
0
0
0
0
0
0
1
0
0
0
0
0
0
1
0
0
0
0
0
0
0
0
0
0
0
0
1
0
0
0
0
0
0
0
0
0
0
0
1
0
0
1
0
0
0
0
0
1
0
0
0
0
1
0
0
0
0
0
0
0
0
0
0
0
0
0
0
0
0
0
0
0
0
0
0
0
0
0
0
0
0
0
0
0
0
1
0
0
0
0
0
0
0
0
0
0
0
0
0
0
0
0
0
0
0
0
0
0
0
0
0
1
0
0
0
0
0
0
0
0
0
0
0
0
0
0
0
0
0
0
0
0
0
0
0
0
0
0
0
0
0
0
0
0
0
0
0
<<END>>
<<DPP CONFIGURATION>>
COM Port: USB
Rise: 3.2uS
Top: 0.2uS
Fast Threshold: 11
PUR Enable: PUROn
RTD ON/OFF: RTDOn
RTD Threshold: 3.13% FS
RTD Fast HWHM: 10
AutoBaseline: Off
BLR: BLR:ON DN:16 UP:4 
Acquisition Mode: MCA
MCS Timebase: 10mS/channel
MCA Channels: 4096
Slow Threshold: 1.17% FS
Buffer Select: Buffer A
Gate Input (TTL): GateOff
Preset: 1 min
Coarse Gain: 110.29x
Fine Gain: 1.0000
Input Polarity: Negative
Input Offset: 0.010V
Pole Zero: OFF
Det Rst Lockout: 1.64mS
TEC: 230.0K
HV: 180.2V
Preamp Power: 8.5V
Analog Out: Shaped Pulse
Offset: 101mV
Aux: ICR
Audio: Off
<<DPP CONFIGURATION END>>
<<DPP STATUS>>
Device Type: PX4
Serial Number: 1567
Firmware: 4.04
FPGA: 4.07
Fast Count: 89499
Slow Count: 87350
Accumulation Time: 60
Dead Time: 2.46%
HV Volt: 179V
TEC Temp: 230K
Board Temp: 31°C
<<DPP STATUS END>>
