<<PMCA SPECTRUM>>
TAG - live_data
DESCRIPTION - 
GAIN - 4
THRESHOLD - 0
LIVE_MODE - 0
PRESET_TIME - 60
LIVE_TIME - 49.572000
REAL_TIME - 60.000000
START_TIME - 03/16/2026 10:34:26
SERIAL_NUMBER - 1567
<<CALIBRATION>>
LABEL - Channel
1446.37 13.95
1837.93 17.74
<<ROI>>
753 758
763 768
1416 1476
1803 1875
<<DATA>>
0
0
0
0
0
0
0
0
0
0
0
0
0
0
0
0
0
0
0
0
0
0
0
0
0
0
0
0
0
0
0
0
0
0
0
0
0
0
0
0
0
0
0
0
0
0
0
0
2325
3533
2581
1748
1302
1029
807
681
608
518
458
412
412
408
394
353
332
329
293
299
268
272
260
261
252
232
237
238
241
199
220
186
196
186
190
180
179
179
186
169
147
156
155
148
144
139
138
128
141
140
114
123
101
133
127
117
132
117
103
130
114
109
125
127
104
115
98
106
102
102
113
125
104
95
98
111
97
85
100
111
29
30
22
34
25
30
29
22
32
42
26
25
30
31
26
32
32
37
55
45
34
44
27
32
38
44
37
38
37
39
29
32
40
47
45
43
30
36
40
41
46
42
37
38
38
32
40
40
49
24
46
35
50
32
46
40
40
44
44
35
43
39
55
46
35
28
35
41
36
46
27
41
41
32
32
26
39
41
28
35
19
37
37
27
25
29
23
37
28
24
22
26
14
24
34
24
27
20
23
22
18
26
21
23
20
24
29
28
21
26
15
14
27
20
24
20
20
20
19
24
19
17
20
13
25
16
19
17
16
13
13
14
15
14
12
26
14
15
7
15
12
15
13
16
17
15
15
12
17
19
10
10
12
9
9
11
12
11
7
11
13
14
9
12
8
13
6
6
11
16
10
12
10
12
9
11
12
11
9
7
10
12
7
3
19
5
4
14
10
9
9
6
12
9
9
7
4
8
11
5
10
4
7
9
9
8
5
3
9
7
10
6
8
14
11
11
10
9
5
10
6
5
7
6
7
4
10
6
11
7
4
5
5
9
12
3
7
4
11
10
11
7
2
9
6
2
8
4
2
8
7
3
6
2
10
2
7
5
3
3
3
6
6
4
5
3
4
0
4
6
7
3
2
4
6
4
7
4
5
4
4
8
6
5
2
3
3
8
4
5
5
2
4
6
3
3
2
2
1
6
5
6
4
4
3
2
2
3
5
2
8
1
3
3
3
2
4
1
1
10
8
3
4
6
3
1
9
5
2
1
6
3
1
4
1
7
1
2
3
5
5
1
3
1
4
5
3
4
7
1
2
3
2
5
2
7
7
2
5
9
3
1
4
5
2
8
3
3
4
4
3
2
9
2
3
2
3
2
2
2
3
4
5
7
4
2
2
3
2
2
3
6
2
7
3
2
1
6
0
2
3
0
4
5
5
2
6
3
1
6
1
1
6
6
1
5
3
2
6
4
3
4
1
4
2
3
1
1
2
1
4
3
1
1
4
8
6
2
3
3
1
6
2
3
0
4
2
3
2
4
4
4
2
5
2
2
4
3
3
3
7
5
6
4
1
4
4
3
2
3
2
0
2
1
2
4
0
5
1
3
2
3
2
2
4
2
2
1
4
0
5
2
1
2
4
3
5
5
5
4
2
1
4
2
3
3
3
3
1
1
1
3
3
0
0
1
0
6
7
3
10
2
5
1
2
0
3
3
3
5
3
1
3
0
2
6
2
2
3
2
3
2
1
2
0
2
3
3
1
4
1
2
4
2
2
4
1
1
3
2
2
1
4
2
2
1
3
3
2
3
3
4
1
3
2
1
2
4
6
4
4
2
3
0
2
1
4
0
1
0
1
4
1
3
2
1
3
5
2
3
3
1
5
2
2
2
3
4
5
2
4
2
4
3
1
1
6
4
4
3
3
4
2
6
6
2
1
4
5
4
3
6
3
6
9
9
8
8
6
8
16
11
13
13
8
14
11
18
13
9
10
12
20
14
18
10
12
13
21
16
9
15
15
15
10
18
18
10
10
8
9
11
11
8
10
4
6
6
5
8
6
5
8
5
8
9
5
9
6
11
14
9
14
16
16
13
21
13
17
23
28
21
23
34
28
26
31
31
29
36
26
32
35
41
29
35
38
45
38
35
38
28
37
32
29
25
32
27
23
38
27
19
20
28
21
22
23
21
14
17
17
27
13
18
16
16
17
27
19
11
22
24
21
24
22
28
30
39
44
35
47
41
40
32
43
49
48
41
42
42
46
51
52
46
52
58
32
49
41
44
42
37
46
45
47
33
41
43
37
34
28
42
30
31
28
27
34
28
22
22
22
15
10
14
12
16
14
17
15
18
13
10
17
14
13
4
10
12
12
12
15
13
8
8
17
13
14
10
19
8
10
16
20
10
15
12
21
12
18
19
17
20
16
21
24
28
22
24
31
32
27
25
29
31
31
33
37
41
27
47
47
41
48
51
44
44
40
42
43
48
45
52
53
52
47
55
39
47
44
35
39
43
36
57
52
46
39
52
35
32
39
34
28
42
33
43
34
23
30
36
24
24
30
31
30
27
19
24
20
27
27
24
14
17
21
8
13
12
16
10
12
15
14
17
11
13
12
16
13
10
6
14
7
9
10
11
5
4
7
5
8
3
4
4
4
4
2
5
4
1
4
2
6
5
4
0
2
4
4
4
3
2
4
0
8
2
1
3
3
3
5
0
2
1
5
5
3
3
6
4
4
4
5
3
3
8
3
1
8
2
0
4
8
2
5
2
3
2
2
4
1
4
2
4
5
4
5
2
3
5
6
3
3
5
4
5
6
4
2
2
8
0
4
4
3
6
4
0
2
8
7
4
3
1
5
3
5
6
2
5
6
3
2
7
6
6
1
3
2
3
4
4
1
3
5
4
3
3
6
3
6
5
2
9
5
4
2
6
4
4
2
5
3
8
5
3
6
3
4
3
3
5
2
2
2
7
5
2
3
3
2
2
4
1
2
4
4
6
3
6
3
4
3
4
3
1
3
3
0
6
2
4
5
5
1
4
4
3
3
0
5
4
8
5
1
1
5
2
3
5
2
4
4
2
3
5
6
1
8
6
1
2
1
3
1
1
3
2
1
1
0
2
2
2
2
4
1
3
3
3
3
1
4
2
1
1
3
4
5
5
5
3
2
1
4
1
6
3
3
1
6
5
2
3
5
3
3
7
3
4
1
3
5
5
6
1
2
3
4
4
3
3
3
4
6
0
2
3
1
0
5
4
3
2
4
3
3
4
2
5
2
1
2
2
2
8
3
6
3
1
3
3
4
2
4
5
1
3
8
5
8
6
6
5
2
5
2
3
1
2
5
2
6
1
2
3
4
4
2
3
5
5
4
4
8
7
6
7
6
8
7
9
9
13
7
15
12
14
19
19
18
16
11
15
18
24
27
22
17
19
20
20
20
23
29
19
27
20
32
19
22
20
25
29
27
29
19
19
19
15
35
24
20
20
20
17
15
15
15
11
12
12
13
11
8
15
11
8
8
7
8
10
6
4
5
5
3
7
3
4
7
5
3
5
2
3
1
4
6
7
5
4
2
7
6
7
4
4
4
7
5
0
4
8
4
5
4
6
7
4
1
3
5
5
2
5
7
4
6
6
2
2
8
3
4
8
3
6
8
3
5
4
8
2
8
3
5
1
0
3
6
6
1
7
3
3
5
7
5
5
3
2
7
7
4
9
2
8
6
8
5
3
6
5
6
3
6
2
5
4
8
7
2
5
6
7
2
11
7
0
8
4
4
5
7
5
5
3
3
6
6
10
6
4
9
4
7
4
5
7
7
6
2
9
13
6
4
13
10
4
8
6
12
12
10
9
15
11
12
10
14
5
20
9
9
8
14
7
11
9
5
4
5
6
2
5
5
6
3
11
7
4
10
6
9
5
4
4
8
8
4
6
11
6
8
10
9
9
6
7
8
11
4
3
7
10
8
7
8
9
6
5
8
7
6
8
7
4
10
13
6
7
5
4
8
7
6
11
8
8
11
9
7
8
4
3
13
12
7
6
9
7
9
4
11
9
8
9
5
4
9
8
8
8
8
8
7
9
9
9
8
8
12
9
5
7
8
7
13
10
10
5
8
9
4
7
12
12
9
11
5
7
9
7
6
6
6
5
6
6
7
3
9
8
5
11
9
7
10
8
4
5
6
9
14
5
7
11
7
10
7
5
9
14
8
10
8
9
7
5
6
7
11
11
11
9
12
9
12
9
9
18
16
7
11
12
7
13
4
19
12
6
12
16
12
9
10
8
10
10
8
11
12
6
8
11
4
11
12
7
7
18
15
12
12
11
5
8
10
10
11
10
12
7
9
9
6
8
11
19
10
6
12
9
12
14
13
16
13
8
9
12
13
6
15
12
9
12
11
4
20
13
11
11
10
13
14
16
9
8
16
11
13
11
18
8
10
11
18
17
14
14
13
13
9
7
12
11
8
22
14
17
11
18
12
13
15
17
17
11
15
12
16
8
14
6
18
8
20
24
18
17
13
12
23
23
20
20
9
11
15
10
16
16
9
16
17
9
14
15
22
17
16
18
13
16
16
25
13
14
18
18
13
10
13
16
17
19
20
17
8
15
18
16
15
15
17
17
14
14
14
14
17
11
18
22
13
17
14
20
24
24
18
25
9
15
17
20
14
15
16
9
14
20
14
21
18
23
19
19
8
18
18
15
22
16
22
21
21
25
22
19
21
21
23
25
16
25
25
15
14
17
19
14
23
18
23
26
24
27
23
17
20
24
23
30
22
21
22
21
18
22
31
30
16
33
22
18
20
22
18
22
17
23
25
29
29
18
16
24
26
21
22
34
33
33
34
26
32
32
30
31
32
32
30
30
19
27
45
25
38
28
32
34
26
31
34
42
38
37
35
36
39
37
40
45
31
38
33
36
44
39
45
42
36
46
36
43
47
45
48
41
45
47
45
42
44
51
51
43
51
48
43
50
51
51
50
50
68
53
53
60
67
66
73
59
59
62
53
68
67
54
67
47
63
58
75
59
70
64
65
67
55
70
51
65
68
68
72
57
69
72
62
75
71
65
75
66
74
78
56
85
79
57
71
75
85
84
72
58
73
87
68
84
70
64
65
63
73
65
77
75
81
85
73
81
76
78
93
79
83
70
95
88
65
84
87
79
83
83
83
90
86
82
68
89
79
81
88
85
94
76
84
91
86
97
81
97
97
90
99
106
90
94
92
89
97
100
98
108
97
111
124
92
112
121
105
121
135
125
132
125
131
132
136
168
188
182
205
255
243
277
295
311
336
407
424
505
565
672
698
801
845
897
1090
1176
1258
1406
1528
1673
1760
1915
2115
2248
2472
2592
2878
3058
3249
3470
3800
3824
3981
4346
4410
4635
4877
5096
5179
5566
5588
5717
6028
6102
6234
6216
6483
6510
6723
6683
6668
6668
6699
6695
6740
6350
6589
6469
6427
6069
6247
5792
5671
5425
5374
5227
4921
4660
4546
4280
4057
4013
3694
3391
3107
3064
2794
2530
2416
2314
1970
1781
1640
1493
1347
1236
1067
935
845
800
645
577
540
446
398
325
303
230
229
206
163
143
131
133
103
76
92
90
76
78
79
70
58
72
57
51
69
50
52
71
60
56
52
57
51
54
45
49
53
45
62
50
41
42
44
50
53
51
53
50
54
20
51
41
57
50
41
33
37
50
48
43
38
37
54
47
39
48
55
43
42
53
50
38
37
35
41
35
30
38
41
49
38
45
40
39
43
37
41
47
48
33
47
48
34
37
44
34
49
37
30
53
39
38
45
41
41
27
37
39
39
38
49
42
43
35
45
47
32
43
42
30
41
37
35
33
45
31
43
32
26
37
39
33
30
46
43
42
37
26
33
49
38
33
42
49
45
44
43
31
38
30
30
48
34
35
30
41
46
59
49
46
48
45
36
42
41
36
44
36
37
30
38
47
49
38
42
41
45
26
48
45
58
50
48
54
54
50
36
40
42
46
40
47
32
49
65
50
52
42
70
71
58
55
68
68
79
78
77
72
96
84
95
109
124
139
158
159
209
215
252
250
286
311
329
379
372
444
470
490
506
599
636
656
674
723
724
812
827
879
907
913
1023
1000
1002
1002
944
1030
1095
1039
1090
1088
1076
1054
1050
1002
981
1060
1010
944
945
924
868
873
847
769
745
739
680
656
652
573
545
498
470
498
412
399
383
366
326
316
313
269
293
283
234
245
218
218
230
212
232
199
219
217
213
224
235
244
215
221
218
191
191
219
218
184
182
191
183
186
189
178
193
173
148
158
161
148
111
137
118
118
107
94
97
90
99
83
66
71
56
64
60
51
62
31
43
31
39
40
38
25
38
28
20
24
29
31
21
22
27
25
18
23
19
25
23
25
19
16
20
15
23
19
15
18
15
20
24
10
20
20
19
19
25
20
26
13
28
10
19
24
21
12
14
27
23
20
19
16
21
20
21
19
18
20
27
15
17
12
17
20
20
15
24
22
13
14
22
14
12
9
17
15
13
12
20
18
23
15
18
16
16
25
23
11
14
14
20
12
24
14
13
13
16
18
15
14
16
10
19
14
19
10
12
14
10
21
14
14
16
20
16
16
11
18
24
15
18
29
14
15
10
19
15
16
18
11
10
13
21
20
18
23
19
19
13
18
14
20
11
16
19
22
15
14
14
19
11
19
14
12
23
15
21
14
22
7
18
17
17
25
20
20
16
9
18
17
20
21
17
17
17
28
19
23
22
23
22
21
13
15
17
24
14
25
17
15
12
20
15
19
14
14
15
17
20
17
12
11
15
15
20
14
18
13
13
19
16
15
15
19
22
10
18
17
18
15
22
16
15
16
11
9
11
22
20
16
25
12
14
11
22
19
12
15
15
15
12
20
14
12
14
14
15
18
16
11
11
24
16
13
16
13
15
16
11
11
19
12
13
14
15
22
16
14
21
18
17
19
13
14
19
16
15
11
18
12
13
12
20
14
18
18
17
11
25
12
16
12
16
16
17
18
12
11
14
25
12
16
13
15
18
18
15
7
9
15
19
9
13
21
9
20
21
15
16
10
14
14
18
16
10
17
19
14
13
17
23
13
25
12
8
21
11
20
16
10
14
7
20
17
24
13
10
16
11
15
15
12
10
14
14
15
17
16
13
8
9
22
14
22
7
17
16
13
17
21
14
17
16
6
18
10
12
13
14
22
16
15
13
18
17
19
14
11
16
15
10
20
14
9
10
11
6
13
14
7
11
10
10
7
11
10
11
13
7
10
18
19
5
17
10
17
12
17
4
12
10
13
10
15
19
12
14
12
17
17
11
11
24
13
10
13
8
11
12
18
15
10
16
11
12
11
11
10
11
15
21
14
18
11
13
15
18
14
8
7
12
9
11
11
13
10
10
11
19
13
12
19
11
20
6
8
14
8
9
17
11
9
7
10
10
9
5
9
13
11
13
14
7
9
13
14
5
8
8
11
7
12
10
9
9
8
13
7
14
8
12
19
20
11
9
9
6
14
14
8
10
12
11
8
13
10
12
11
10
17
13
20
10
10
19
11
11
12
13
7
15
12
11
8
8
12
5
9
10
13
21
8
10
8
8
7
10
7
9
11
7
12
5
6
15
10
10
10
8
4
11
8
6
7
9
16
11
8
10
10
11
10
8
6
9
7
8
11
8
13
6
7
8
15
13
7
8
13
11
13
13
12
9
6
8
9
7
10
11
9
5
10
13
13
9
9
7
7
14
9
9
11
7
9
11
15
13
10
9
10
6
6
13
9
10
8
9
6
12
10
14
9
8
7
5
14
4
10
8
8
4
10
10
6
6
8
7
4
8
12
12
10
4
10
6
7
6
12
5
10
6
5
11
5
5
11
3
9
9
8
7
4
9
7
5
8
10
6
6
11
9
9
12
2
6
6
8
15
3
11
6
8
10
8
7
8
10
5
13
4
4
6
6
2
10
4
2
8
6
7
9
12
8
4
6
9
5
11
3
8
7
4
8
5
10
6
6
7
7
9
7
10
9
5
9
4
5
3
6
7
6
5
3
8
5
8
6
10
13
11
9
9
2
9
2
8
9
6
4
9
3
10
8
5
6
10
11
14
5
8
5
3
6
8
3
4
7
1
2
9
2
3
13
5
5
1
8
7
5
5
13
5
6
9
5
11
8
5
2
9
6
2
5
6
2
6
6
6
5
1
4
6
7
11
5
7
2
7
8
4
3
6
6
3
4
3
2
7
4
6
4
0
3
5
3
2
4
1
6
1
6
5
7
7
4
2
6
2
6
8
4
5
8
8
3
4
3
5
3
4
6
5
1
4
2
5
1
3
1
7
4
5
3
3
3
3
5
6
1
5
2
5
2
7
4
5
2
6
2
6
3
3
2
2
5
3
2
0
1
7
3
3
2
3
3
1
3
4
3
5
2
2
3
4
3
4
1
5
3
6
1
4
2
6
2
1
5
2
5
3
0
2
2
2
3
2
1
2
3
1
1
3
3
1
5
2
1
4
0
1
0
0
3
0
5
2
4
1
0
3
4
2
0
3
1
3
1
3
3
0
1
1
3
3
1
1
1
2
1
1
1
4
1
1
1
2
1
1
0
3
1
2
2
1
2
2
3
1
0
0
1
0
1
1
0
1
0
1
1
3
0
2
1
2
2
3
0
0
2
2
2
0
0
1
0
1
0
0
0
1
4
1
2
2
2
1
3
3
1
0
0
1
1
2
0
1
1
0
2
0
1
0
0
0
0
1
1
1
0
1
1
0
1
1
1
1
0
1
0
1
1
0
2
1
0
0
0
0
0
1
1
0
0
1
0
0
0
1
0
0
0
0
1
0
1
0
0
0
1
2
1
1
0
0
1
0
1
1
0
0
2
1
0
0
0
0
0
1
1
0
0
0
1
0
0
0
0
0
0
0
0
0
2
1
0
0
0
0
0
2
0
0
1
0
0
0
1
0
1
0
0
0
0
0
0
0
1
1
0
1
1
1
1
1
0
0
2
0
0
0
1
1
1
0
0
0
1
0
0
1
0
0
0
0
0
1
0
1
0
1
0
0
1
1
1
0
0
1
0
0
0
0
1
0
0
0
0
0
0
0
0
1
0
0
0
0
2
0
0
1
0
0
2
0
1
0
1
0
0
0
0
0
0
0
0
0
0
0
1
1
1
0
0
0
0
0
0
0
1
0
0
1
1
0
0
0
0
0
1
1
0
0
1
0
0
0
1
0
0
0
0
2
0
1
1
0
0
0
1
0
0
0
0
0
0
0
0
0
0
0
1
1
0
0
0
0
0
0
0
0
1
0
0
0
1
1
0
0
0
0
0
0
0
0
1
0
0
0
0
0
1
0
0
0
0
0
0
0
0
1
0
1
0
0
0
0
0
0
0
0
0
0
0
0
0
0
0
0
0
0
1
0
0
0
0
0
0
0
0
0
0
0
0
0
0
0
0
0
0
0
1
0
1
1
0
0
0
0
0
0
1
0
0
0
0
0
0
0
1
0
1
0
0
0
0
0
0
1
0
0
1
0
1
0
0
0
1
1
1
0
0
1
0
0
0
0
0
0
<<END>>
<<DPP CONFIGURATION>>
COM Port: USB
Rise: 3.2uS
Top: 0.2uS
Fast Threshold: 11
PUR Enable: PUROn
RTD ON/OFF: RTDOn
RTD Threshold: 3.13% FS
RTD Fast HWHM: 10
AutoBaseline: Off
BLR: BLR:ON DN:16 UP:4 
Acquisition Mode: MCA
MCS Timebase: 10mS/channel
MCA Channels: 4096
Slow Threshold: 1.17% FS
Buffer Select: Buffer A
Gate Input (TTL): GateOff
Preset: 1 min
Coarse Gain: 110.29x
Fine Gain: 1.0000
Input Polarity: Negative
Input Offset: 0.010V
Pole Zero: OFF
Det Rst Lockout: 1.64mS
TEC: 230.0K
HV: 180.2V
Preamp Power: 8.5V
Analog Out: Shaped Pulse
Offset: 101mV
Aux: ICR
Audio: Off
<<DPP CONFIGURATION END>>
<<DPP STATUS>>
Device Type: PX4
Serial Number: 1567
Firmware: 4.04
FPGA: 4.07
Fast Count: 549188
Slow Count: 455431
Accumulation Time: 60
Dead Time: 17.38%
HV Volt: 178V
TEC Temp: 230K
Board Temp: 31°C
<<DPP STATUS END>>
