<<PMCA SPECTRUM>>
TAG - live_data
DESCRIPTION - 
GAIN - 4
THRESHOLD - 0
LIVE_MODE - 0
PRESET_TIME - 60
LIVE_TIME - 70.583000
REAL_TIME - 70.583000
START_TIME - 03/16/2026 10:25:05
SERIAL_NUMBER - 1567
<<CALIBRATION>>
LABEL - Channel
1446.37 13.95
1837.93 17.74
<<ROI>>
753 758
763 768
1416 1476
1803 1875
<<DATA>>
0
0
0
0
0
0
0
0
0
0
0
0
0
0
0
0
0
0
0
0
0
0
0
0
0
0
0
0
0
0
0
0
0
0
0
0
0
0
0
0
0
0
0
0
0
0
0
0
582
795
505
331
188
124
77
47
44
31
10
26
11
15
18
17
17
18
9
16
16
10
15
12
14
12
6
9
6
2
3
6
7
9
7
3
4
4
5
6
6
9
1
2
6
6
7
7
4
3
6
2
1
2
2
4
0
1
5
3
5
5
3
6
1
2
2
3
3
2
2
3
5
0
1
1
2
5
2
2
0
0
0
0
0
0
0
0
0
1
0
0
0
1
0
1
1
1
0
0
0
0
1
2
0
0
1
0
0
1
3
0
2
0
1
0
0
1
2
0
0
0
0
1
0
0
0
0
1
1
0
1
3
0
0
1
2
1
0
0
1
0
0
0
0
0
1
0
1
1
0
1
1
1
0
1
0
0
2
0
1
1
0
0
0
1
1
1
0
1
2
2
0
0
1
0
2
2
0
0
2
0
0
2
0
1
0
1
1
0
0
0
0
0
0
1
1
1
0
2
0
1
0
1
0
1
0
0
0
0
0
1
1
1
1
0
0
1
0
0
1
0
1
0
1
0
1
1
0
0
0
1
0
0
0
1
1
0
1
0
0
0
0
1
0
2
1
3
1
0
2
0
0
1
0
0
1
0
1
0
0
1
0
0
0
2
1
1
1
0
1
0
0
2
0
0
0
0
1
1
0
0
0
0
0
0
0
3
2
1
1
0
2
0
0
1
0
1
0
0
1
0
0
0
0
0
1
0
1
0
0
0
1
0
0
2
1
0
0
0
1
0
0
0
0
0
0
0
0
0
0
0
0
0
1
1
1
1
1
0
0
0
0
0
1
0
1
0
0
0
0
0
0
0
0
0
0
0
0
0
1
1
0
1
0
0
1
1
0
0
0
0
1
0
0
0
0
0
0
0
0
0
0
0
0
0
0
0
0
1
0
1
0
0
0
0
0
0
0
0
0
0
0
1
0
0
0
1
0
0
0
0
0
0
0
0
0
0
0
0
0
0
0
0
0
0
0
0
0
0
1
0
0
0
0
0
0
0
1
0
0
1
1
0
0
0
0
0
0
0
0
1
0
0
0
0
0
0
0
0
0
0
0
0
0
0
0
0
0
0
1
0
1
0
0
0
0
1
0
0
0
0
0
1
1
0
0
0
0
0
0
0
0
0
0
0
0
0
0
0
0
0
0
0
0
0
0
1
1
0
0
0
0
0
1
0
0
0
0
0
0
1
0
0
0
0
0
0
0
0
0
0
0
0
1
0
0
1
0
0
0
0
0
1
0
0
0
1
0
0
1
0
0
0
0
0
0
0
0
0
0
0
0
0
1
0
0
0
0
2
0
0
0
0
0
0
0
0
0
1
0
0
0
0
0
0
0
0
0
0
0
0
0
0
0
0
0
0
0
0
1
0
0
0
0
0
0
0
0
0
0
0
0
0
0
0
1
0
0
0
0
0
0
0
0
0
0
0
0
0
0
0
0
0
0
0
0
1
0
0
1
0
0
0
0
0
0
0
0
0
0
0
0
0
0
0
0
0
0
0
0
0
0
0
0
0
0
0
0
1
0
0
0
0
0
0
0
0
0
0
0
0
0
0
0
0
1
1
0
0
0
0
0
0
1
1
0
0
0
0
0
0
0
0
0
0
0
0
0
0
0
1
0
1
0
0
1
0
1
0
0
2
3
2
0
1
1
0
0
2
1
2
0
0
0
1
0
1
0
1
2
0
1
0
1
1
1
0
0
0
1
0
0
0
0
0
0
0
0
0
0
0
1
0
0
0
0
1
0
0
0
0
0
0
0
1
0
1
0
0
0
0
0
0
1
0
1
1
0
1
2
0
0
0
0
1
1
0
0
1
0
0
0
0
0
1
0
0
2
1
1
0
0
0
0
1
1
0
0
1
0
0
1
0
0
0
0
1
0
1
0
0
0
0
0
0
1
0
2
0
0
0
0
1
1
0
0
0
0
0
1
0
0
0
0
0
0
1
0
1
0
0
0
0
0
0
0
0
0
0
0
0
0
0
0
0
0
0
1
0
0
0
0
0
0
0
0
0
0
0
0
0
0
0
0
0
0
0
0
0
0
0
0
0
0
0
0
0
0
0
0
0
0
0
0
1
0
0
0
0
0
0
0
0
0
0
0
0
0
0
0
0
0
0
0
0
0
0
0
0
1
0
0
0
0
1
0
0
0
1
0
0
1
0
0
1
2
0
0
0
0
1
2
5
0
0
0
0
0
1
0
1
0
2
1
1
0
0
0
1
1
1
1
0
0
0
0
0
0
0
0
0
1
0
0
0
0
0
0
0
1
0
0
0
0
0
0
1
0
0
0
0
0
0
0
0
0
0
0
0
0
0
0
0
0
0
0
0
0
0
0
0
0
0
0
0
0
0
0
0
0
0
0
0
0
0
0
0
0
0
0
0
0
0
0
0
0
0
0
0
0
0
0
0
0
0
0
0
0
0
0
0
0
0
0
0
0
0
0
0
0
0
0
0
0
0
0
0
0
0
0
0
0
0
0
0
1
1
0
0
0
0
0
0
0
0
0
0
0
0
0
0
0
0
0
0
0
0
0
0
0
0
0
0
0
0
0
0
0
0
0
0
0
0
0
0
0
0
0
0
0
0
0
1
0
0
0
0
1
0
0
0
0
0
0
0
0
1
0
0
0
0
0
0
0
0
0
0
0
0
0
0
0
0
0
0
0
0
0
0
0
0
0
0
0
0
0
0
0
0
0
0
0
0
1
0
0
0
0
0
0
0
0
0
0
0
0
0
0
0
0
0
0
0
0
0
0
0
0
0
1
0
0
0
0
0
0
0
0
0
0
0
0
0
0
0
0
0
0
0
0
0
1
0
0
0
0
0
0
0
0
0
0
0
0
0
1
0
0
2
0
0
0
0
0
0
0
0
0
0
0
0
0
0
0
0
0
0
0
0
0
0
0
0
0
0
0
0
0
0
0
0
0
0
0
0
0
0
0
0
0
0
0
0
0
0
0
0
0
0
0
0
0
0
0
0
0
0
0
0
0
0
0
0
0
0
0
0
0
0
0
0
0
0
0
0
0
0
0
0
0
0
0
0
0
0
0
0
0
0
0
0
0
0
0
0
0
0
0
0
0
0
0
0
0
0
0
0
0
0
0
0
0
0
0
0
0
0
0
0
0
0
0
0
0
0
0
0
0
1
0
0
0
0
0
0
0
0
0
0
0
0
0
0
0
0
0
0
0
0
0
0
0
0
0
1
0
0
0
0
0
0
0
0
0
0
0
0
0
0
0
0
0
0
1
0
0
0
0
0
0
0
0
0
0
0
0
0
0
0
0
0
0
0
0
0
0
0
0
0
0
0
0
0
0
0
0
0
0
0
0
0
0
0
0
0
0
0
0
0
0
0
0
0
0
0
0
0
0
0
0
0
0
0
0
0
0
0
0
0
0
0
1
1
0
0
0
0
0
0
0
0
0
0
0
0
0
0
0
0
0
0
0
0
0
0
0
0
0
0
0
0
0
0
0
0
0
0
0
0
0
0
0
0
1
0
0
0
0
0
0
0
0
0
0
0
0
0
0
0
0
0
0
0
0
0
0
0
0
0
0
0
0
0
0
0
0
0
0
0
0
0
0
1
0
0
0
0
1
0
1
0
0
0
0
0
0
0
0
0
0
0
0
0
0
0
0
0
0
0
0
0
0
0
0
0
0
0
0
0
0
0
1
0
0
0
0
0
0
0
0
0
0
0
0
0
0
0
0
0
0
0
0
0
0
0
0
0
0
0
0
0
0
0
0
0
0
0
0
0
0
0
0
0
0
0
0
0
0
0
0
0
0
0
0
0
0
0
0
0
0
0
0
0
0
0
0
0
0
0
0
0
0
0
0
0
0
0
0
0
0
0
0
0
0
0
0
0
0
0
0
0
0
0
0
0
0
0
0
0
0
0
0
0
0
0
1
0
0
0
0
0
0
0
0
0
0
0
0
1
0
0
0
0
0
0
0
0
0
0
0
0
0
0
0
0
0
0
0
0
0
0
0
0
0
0
0
0
0
0
0
0
0
0
0
0
0
0
0
0
0
0
0
0
0
0
0
0
0
0
0
0
0
0
0
0
0
0
0
0
0
1
0
0
0
0
0
0
0
0
0
0
0
0
0
0
0
0
0
0
0
0
0
0
0
0
0
0
0
0
0
0
0
0
0
0
0
0
0
0
0
0
0
0
0
0
0
0
0
0
0
0
0
0
0
0
0
0
0
0
0
0
0
0
0
0
0
0
0
0
0
0
0
0
0
0
0
0
0
0
0
0
0
0
0
0
0
0
0
0
0
0
0
0
0
0
0
0
0
0
0
0
0
0
0
0
0
0
0
0
0
0
0
0
0
0
0
0
0
0
0
0
0
0
0
0
0
1
0
0
0
0
0
0
0
0
0
0
0
0
0
0
0
0
0
0
0
0
0
1
0
0
0
0
0
0
0
0
0
0
0
0
0
0
0
0
0
0
1
0
0
1
0
0
0
0
0
0
0
0
0
1
1
0
0
0
0
0
0
0
0
0
0
0
0
0
0
0
0
0
0
0
0
0
0
0
0
0
0
0
0
0
0
0
0
1
0
0
0
0
0
0
0
0
1
0
1
0
0
0
0
0
0
0
0
0
0
0
0
0
0
0
0
0
0
0
1
0
0
0
0
0
0
0
0
0
0
0
0
0
0
0
0
0
0
0
0
1
0
1
0
1
1
0
0
0
0
0
1
0
0
0
0
0
1
0
0
0
0
0
0
1
0
2
0
0
1
0
0
0
0
0
0
1
0
0
0
0
0
0
1
0
0
1
0
0
0
0
0
0
0
0
0
0
0
0
0
1
0
1
0
0
0
0
0
0
0
0
0
0
0
0
0
1
0
1
1
0
1
0
1
1
0
0
0
0
0
0
0
0
1
1
0
0
1
0
0
0
1
0
1
0
1
0
1
1
1
0
0
0
0
1
0
0
0
1
0
0
0
0
0
2
0
0
0
1
1
0
0
0
0
0
0
0
0
0
0
0
0
0
0
0
0
2
0
1
0
0
0
0
0
0
0
0
0
0
0
0
0
0
0
2
0
0
0
0
0
0
0
0
0
1
0
0
0
0
0
2
0
1
0
0
1
0
1
0
0
0
1
0
0
1
0
1
1
0
0
0
2
0
1
0
0
0
0
0
0
1
1
2
0
1
0
0
0
0
0
0
0
0
0
1
1
0
0
0
0
0
1
0
0
0
0
0
0
0
1
0
1
0
2
1
0
0
0
0
1
0
0
0
0
0
0
0
1
0
0
0
0
0
0
0
0
0
1
0
0
0
1
0
0
0
0
0
1
0
0
0
0
0
1
0
0
0
1
0
1
0
0
1
1
0
2
1
0
0
1
0
0
0
0
0
1
0
0
1
1
1
0
0
0
0
0
2
0
0
0
1
1
0
0
0
1
0
0
2
0
2
1
1
1
1
0
0
1
0
0
1
0
1
1
0
0
0
1
1
1
0
2
0
1
1
1
1
1
0
0
1
2
0
1
0
1
1
0
0
0
1
0
0
0
1
0
2
0
1
0
2
1
1
0
3
0
0
1
0
0
2
0
2
0
2
1
0
0
0
2
1
0
1
0
2
1
0
1
0
2
1
0
1
0
0
1
0
1
2
0
0
0
0
1
0
1
0
0
1
0
0
2
1
1
2
0
0
0
2
0
2
2
0
0
1
0
3
3
1
0
2
2
0
4
0
2
1
1
0
1
0
1
3
2
1
1
0
2
0
4
2
2
0
1
2
1
1
2
1
3
0
0
2
3
0
2
2
1
1
2
0
1
1
2
2
1
1
0
3
2
3
2
0
3
3
2
0
1
3
0
1
4
1
2
0
1
1
3
1
3
1
4
0
1
1
2
0
1
0
5
0
3
0
1
3
1
1
4
2
1
2
2
1
0
3
1
1
1
0
1
1
2
0
0
0
2
0
1
0
4
1
3
0
1
0
0
1
2
0
1
2
2
1
1
0
0
2
0
1
3
0
3
0
2
3
0
2
1
0
2
6
0
1
1
5
0
1
1
3
1
0
2
2
1
1
1
0
0
0
2
4
1
2
1
1
1
1
2
4
2
1
0
1
1
3
2
3
2
3
2
0
3
1
2
0
2
0
1
1
4
2
4
0
2
1
0
1
2
0
3
0
3
3
4
2
0
2
3
2
5
1
4
1
3
1
2
2
0
0
4
2
0
3
2
3
5
0
2
1
1
0
1
1
2
1
1
1
0
2
0
1
0
2
1
3
0
4
1
1
4
1
1
0
1
2
1
4
7
2
4
2
0
6
3
3
1
5
4
1
0
3
2
0
3
4
4
4
2
2
3
3
0
2
2
2
2
1
1
3
3
2
1
4
8
3
0
2
1
2
2
2
3
1
2
3
1
1
5
3
3
2
1
3
0
0
1
1
1
1
0
0
3
2
1
2
1
6
0
3
2
1
3
3
3
2
1
2
0
2
1
2
2
1
1
2
4
0
2
0
0
5
3
1
3
1
4
1
0
3
1
0
0
2
1
1
0
1
2
2
3
3
2
3
2
1
2
2
4
4
1
1
3
3
3
3
3
0
2
4
1
3
5
1
3
1
1
3
4
1
2
5
1
2
1
4
1
2
4
3
3
5
2
0
1
5
0
4
1
3
6
2
2
2
3
3
2
2
2
1
2
0
5
3
2
0
0
2
0
4
4
3
3
3
1
2
1
5
1
3
5
2
3
0
3
4
2
3
2
3
1
3
1
3
4
1
2
2
3
0
2
1
3
5
4
2
4
2
4
3
2
2
4
4
2
5
4
3
4
2
3
6
1
3
4
3
5
0
1
1
7
0
4
3
4
4
2
3
2
4
3
0
4
3
3
4
1
3
3
6
4
1
1
2
2
5
3
1
3
4
2
5
2
3
2
2
0
1
4
2
3
1
3
3
2
1
4
2
3
5
1
3
3
4
2
3
1
6
4
1
3
7
1
4
0
3
6
0
3
2
2
2
4
3
2
4
3
6
1
7
2
2
3
1
0
1
3
2
5
1
2
0
4
1
3
3
3
0
5
3
3
3
5
4
4
1
2
1
6
2
1
5
3
4
2
3
3
4
3
3
0
4
2
5
4
3
2
4
4
5
1
2
2
3
0
1
2
3
2
5
4
1
5
3
5
4
0
2
4
4
1
5
1
1
4
2
5
3
7
6
0
3
4
4
1
3
0
2
2
3
4
3
2
1
5
2
3
2
1
5
5
7
4
1
7
1
2
3
4
6
5
5
2
3
2
1
3
5
6
3
2
4
1
5
6
4
4
1
1
2
3
6
2
2
2
4
3
1
4
4
2
0
2
4
4
0
1
3
6
4
2
3
5
4
2
1
1
6
4
6
2
3
3
3
4
4
6
4
1
1
2
0
5
5
2
2
2
3
3
4
0
2
4
1
2
7
1
4
2
2
2
5
4
3
0
2
0
1
0
3
2
3
4
3
1
3
3
3
2
1
5
2
3
1
3
3
4
7
2
4
4
4
5
0
3
1
4
2
5
5
2
2
2
5
2
3
2
2
2
2
2
2
2
1
3
0
1
0
1
3
1
0
1
0
3
3
2
3
3
4
2
3
1
3
3
4
4
1
5
2
2
3
1
2
1
1
1
0
2
1
3
0
4
1
2
1
1
3
1
1
2
4
3
1
2
1
4
1
3
2
2
1
1
4
0
2
3
2
5
6
3
1
3
4
4
4
1
3
1
2
1
1
6
4
0
2
1
5
3
3
3
2
2
1
2
2
2
1
2
3
1
1
7
1
4
1
3
1
1
1
3
1
1
0
2
3
2
4
6
0
4
1
1
3
2
2
2
4
1
1
0
2
4
0
1
3
2
6
1
0
1
4
1
4
0
2
4
2
5
1
1
2
1
1
3
1
2
1
6
1
2
1
1
2
1
2
0
0
0
0
2
0
4
1
3
5
1
2
4
1
0
2
2
1
2
3
1
1
2
1
0
3
1
2
0
2
4
0
0
1
1
5
4
2
3
1
2
2
3
1
0
1
4
4
1
1
0
4
1
1
2
1
0
0
1
2
1
0
0
3
0
5
0
1
1
0
0
2
2
4
0
0
1
1
2
1
1
0
0
1
2
2
5
0
0
2
3
0
3
0
2
1
0
1
1
1
0
1
4
2
0
1
0
4
2
0
1
1
1
0
1
1
1
1
1
0
1
2
0
0
0
1
1
0
2
1
2
0
1
0
0
1
1
1
0
0
1
1
0
2
3
0
0
0
0
1
2
0
1
0
1
2
2
0
0
2
1
0
0
0
0
0
0
1
1
0
0
0
0
0
2
5
1
0
2
2
0
0
0
0
1
0
0
0
0
0
0
2
1
0
1
0
0
0
0
0
2
0
0
0
2
0
0
1
2
0
0
0
1
0
0
1
1
0
0
0
0
0
1
1
2
0
0
0
0
0
2
1
0
0
1
0
0
1
1
0
0
0
0
0
1
0
0
0
1
0
1
0
0
0
0
0
0
0
2
0
1
0
0
0
1
1
0
1
1
0
0
0
0
0
0
0
0
0
0
0
0
0
1
0
0
2
0
0
0
0
0
0
0
0
0
0
0
0
1
0
0
1
1
0
0
0
0
0
0
0
0
0
0
0
1
0
0
0
0
0
0
0
0
0
0
0
0
1
0
1
0
1
0
0
0
0
0
0
0
0
1
0
2
0
0
0
0
0
0
0
0
0
0
0
0
0
0
0
0
0
0
1
0
1
1
0
0
0
0
0
0
1
0
0
0
0
0
0
0
0
0
0
0
0
0
0
0
0
0
0
0
0
0
0
0
0
0
1
0
0
0
0
0
0
0
0
0
0
0
0
0
0
0
0
0
0
0
0
0
0
0
0
0
0
0
1
0
0
0
0
0
0
0
0
0
1
0
0
0
0
0
0
0
0
0
0
0
0
1
0
0
0
0
0
0
0
0
0
0
0
0
0
1
0
0
0
0
0
0
0
1
0
0
0
0
0
0
0
0
0
0
0
0
0
0
0
0
0
0
0
0
1
0
0
0
0
0
0
0
0
0
0
1
0
0
0
0
0
0
0
0
0
0
0
0
0
0
0
0
0
0
0
0
0
0
0
0
0
0
0
0
0
0
0
0
0
0
0
0
0
0
0
0
0
0
0
<<END>>
<<DPP CONFIGURATION>>
COM Port: USB
Rise: 3.2uS
Top: 0.2uS
Fast Threshold: 11
PUR Enable: PUROn
RTD ON/OFF: RTDOn
RTD Threshold: 3.13% FS
RTD Fast HWHM: 10
AutoBaseline: Off
BLR: BLR:ON DN:16 UP:4 
Acquisition Mode: MCA
MCS Timebase: 10mS/channel
MCA Channels: 4096
Slow Threshold: 1.17% FS
Buffer Select: Buffer A
Gate Input (TTL): GateOff
Preset: 1 min
Coarse Gain: 110.29x
Fine Gain: 1.0000
Input Polarity: Negative
Input Offset: 0.010V
Pole Zero: OFF
Det Rst Lockout: 1.64mS
TEC: 230.0K
HV: 180.2V
Preamp Power: 8.5V
Analog Out: Shaped Pulse
Offset: 101mV
Aux: ICR
Audio: Off
<<DPP CONFIGURATION END>>
<<DPP STATUS>>
Device Type: PX4
Serial Number: 1567
Firmware: 4.04
FPGA: 4.07
Fast Count: 3679
Slow Count: 6127
Accumulation Time: 71
Dead Time:       
HV Volt: 178V
TEC Temp: 231K
Board Temp: 31°C
<<DPP STATUS END>>
