<<PMCA SPECTRUM>>
TAG - live_data
DESCRIPTION - 
GAIN - 4
THRESHOLD - 0
LIVE_MODE - 0
PRESET_TIME - 60
LIVE_TIME - 58.752000
REAL_TIME - 60.000000
START_TIME - 03/16/2026 10:37:44
SERIAL_NUMBER - 1567
<<CALIBRATION>>
LABEL - Channel
1446.37 13.95
1837.93 17.74
<<ROI>>
753 758
763 768
1416 1476
1803 1875
<<DATA>>
0
0
0
0
0
0
0
0
0
0
0
0
0
0
0
0
0
0
0
0
0
0
0
0
0
0
0
0
0
0
0
0
0
0
0
0
0
0
0
0
0
0
0
0
0
0
0
0
2340
3406
2200
1486
963
603
381
293
192
176
112
91
75
82
74
76
64
63
54
58
45
68
50
53
46
43
47
36
29
38
54
35
37
35
26
31
35
26
26
32
25
21
23
24
25
23
26
16
16
23
17
16
20
26
17
20
13
26
15
14
18
13
15
11
20
13
18
17
6
11
14
16
14
14
12
8
8
16
13
11
3
0
2
6
4
3
4
4
6
6
2
5
2
2
4
2
3
1
3
1
1
0
0
1
4
1
3
3
8
4
6
2
2
6
7
5
8
3
7
6
5
5
3
1
2
1
0
4
4
7
3
4
2
3
1
3
3
6
3
4
3
5
6
1
6
1
4
2
2
3
3
6
2
4
3
4
2
3
2
1
3
7
5
6
2
5
3
3
2
3
1
3
3
3
2
2
3
4
2
2
4
1
3
4
2
5
3
8
4
4
4
2
3
6
5
4
3
3
7
3
1
3
6
2
3
4
3
3
4
3
4
1
4
0
1
4
6
3
2
1
2
4
4
1
8
2
4
2
2
2
1
3
2
2
7
5
1
9
3
1
3
5
3
2
3
7
5
4
0
5
3
6
1
1
2
5
3
1
1
1
4
4
2
2
1
3
2
0
2
6
2
3
5
2
2
5
2
5
4
2
6
1
4
0
2
2
5
0
4
7
4
4
1
3
4
1
2
2
4
1
1
0
1
0
2
2
1
1
2
2
2
4
3
2
1
3
5
3
1
4
2
0
1
0
1
2
3
3
1
1
5
4
3
4
1
0
0
1
1
2
3
1
2
2
2
2
0
1
2
0
1
0
3
1
1
0
2
0
1
0
2
0
3
2
3
1
4
3
4
1
3
3
1
1
0
3
1
1
1
1
1
0
1
2
1
0
1
0
3
2
2
0
0
1
0
2
1
2
1
2
0
1
2
1
3
2
1
3
1
0
3
1
0
1
0
0
1
0
0
1
1
1
0
1
1
2
3
0
2
3
0
1
1
1
2
1
2
2
3
0
1
2
0
0
2
1
0
1
3
1
1
1
1
2
1
4
2
5
1
6
3
8
5
4
1
6
8
2
2
10
5
8
7
6
7
5
6
4
4
12
4
3
8
9
9
9
5
6
6
8
7
5
7
2
7
7
3
9
6
9
2
7
1
4
4
6
4
4
1
4
3
6
1
3
3
5
1
7
6
1
5
8
5
1
7
6
6
8
4
4
3
1
5
5
2
10
7
1
1
1
3
1
9
2
3
2
5
4
0
7
3
4
0
5
0
2
2
1
2
2
6
2
0
1
2
1
3
1
1
1
2
5
1
0
1
1
3
2
3
2
4
2
0
4
2
5
1
3
0
4
0
2
2
2
1
1
2
1
4
1
1
2
1
1
2
2
5
0
6
4
0
3
1
2
1
6
4
7
2
1
3
4
4
4
2
2
6
0
4
3
0
2
2
2
2
3
0
0
1
5
0
1
2
1
2
1
0
1
5
0
3
0
2
1
1
6
2
2
1
0
1
1
5
2
0
1
0
1
3
4
4
4
3
3
4
1
6
4
0
2
2
0
0
2
0
2
5
5
5
4
4
5
3
2
8
1
3
2
1
1
1
0
3
3
7
6
2
4
4
2
13
6
16
10
13
11
15
19
15
12
20
8
16
18
22
22
24
29
32
30
29
20
28
30
23
29
28
31
28
28
26
33
27
36
28
22
24
22
21
21
22
27
24
22
30
19
28
14
29
28
33
41
53
71
77
92
81
107
138
168
192
194
246
276
338
360
397
404
423
506
541
570
614
574
672
674
685
702
723
752
733
781
740
732
774
745
749
783
716
737
659
761
657
631
643
649
561
618
500
455
504
428
391
390
359
299
291
258
219
186
174
150
148
130
132
125
114
111
128
128
132
131
153
178
195
214
225
211
282
264
290
334
370
344
356
366
395
412
465
440
448
456
453
465
503
483
476
463
487
480
472
427
511
479
436
479
486
434
421
425
391
367
391
351
345
357
304
301
287
295
254
258
224
185
239
208
208
184
167
173
140
143
170
148
136
127
119
123
112
109
97
97
97
73
67
41
46
49
57
43
40
39
32
29
36
21
14
22
19
25
25
29
27
23
18
30
18
35
23
28
38
39
35
36
40
52
51
40
48
42
63
57
66
56
50
60
47
70
66
58
57
68
56
58
48
75
56
51
45
66
62
56
61
56
45
48
47
48
42
45
46
32
36
34
31
30
43
30
31
27
30
30
22
20
17
18
28
13
24
17
16
26
11
12
14
17
14
6
12
11
9
10
6
6
8
14
7
1
11
7
5
6
8
7
3
3
2
4
5
2
4
2
4
2
3
3
4
2
1
0
2
0
3
2
1
0
1
0
1
0
5
1
2
1
2
3
3
4
2
3
2
4
5
5
1
2
3
5
3
6
4
3
1
0
4
3
3
1
3
2
2
3
1
0
7
1
3
1
2
1
1
0
0
3
1
1
3
2
0
0
0
0
0
2
2
5
0
1
1
1
1
1
1
2
0
0
0
4
0
1
1
0
1
2
3
1
1
0
3
2
1
3
1
0
2
2
2
1
1
2
2
4
1
0
1
2
1
0
6
1
2
1
0
2
1
1
4
3
0
2
0
0
0
0
0
1
1
1
0
0
0
4
0
0
2
1
0
1
0
0
1
1
1
0
0
1
1
1
1
1
2
0
2
1
1
0
0
0
0
2
0
1
2
1
0
1
1
1
0
0
1
1
1
0
1
0
1
1
0
0
0
0
1
2
0
1
2
1
2
0
0
0
2
1
0
2
0
0
0
4
2
1
3
2
2
2
4
0
0
3
1
1
1
5
3
1
5
2
0
1
4
4
6
3
2
3
6
6
6
7
2
4
11
3
10
6
3
2
3
3
2
9
8
6
5
1
4
4
2
5
2
2
2
2
1
2
2
6
3
3
3
0
2
2
0
0
3
1
1
2
0
2
0
2
1
1
1
0
1
0
1
0
0
2
1
1
2
2
0
0
0
2
2
0
0
0
0
0
0
2
1
0
0
1
1
0
1
1
0
0
1
0
0
1
1
1
0
0
0
1
2
0
0
1
0
1
1
0
1
0
0
2
0
1
1
0
1
2
0
0
2
0
0
0
0
0
1
0
0
1
0
0
0
0
0
0
0
0
0
0
2
1
0
2
0
0
0
1
2
1
0
0
2
2
0
0
0
1
1
0
3
1
0
0
0
0
0
0
0
0
0
1
0
0
0
0
1
1
1
2
0
0
1
0
1
3
0
2
0
2
0
1
0
1
1
0
1
0
1
0
3
0
1
0
1
2
1
2
3
3
0
1
2
1
3
0
1
2
3
2
4
2
3
1
2
5
1
1
5
3
3
0
1
2
5
0
2
1
1
4
2
1
2
0
3
3
2
0
10
2
3
1
2
4
1
2
1
1
1
2
2
2
2
5
1
7
1
4
1
0
3
6
0
1
1
1
0
1
2
3
1
1
2
1
3
1
2
5
2
0
4
4
0
2
2
5
1
0
2
1
1
0
1
2
2
2
2
4
3
2
1
1
2
5
0
5
2
5
1
1
0
5
0
3
3
1
1
3
3
0
1
2
3
3
1
0
3
0
1
1
2
0
2
2
5
3
0
2
2
2
2
0
1
1
1
3
2
0
0
1
4
4
2
0
2
3
3
6
2
4
4
5
1
0
3
6
3
5
1
3
5
2
4
2
4
0
0
0
0
6
4
0
3
2
3
4
3
4
4
0
2
3
2
3
3
3
1
7
6
4
6
3
4
1
1
5
4
7
2
1
3
2
5
5
2
4
2
1
9
5
4
6
4
7
4
2
3
6
6
3
2
1
4
1
4
2
2
9
3
4
4
7
2
2
5
2
6
2
4
5
5
3
6
4
2
6
2
6
4
7
6
11
2
3
5
2
3
3
10
5
2
2
5
2
3
4
5
2
5
4
5
4
5
3
8
4
2
4
4
4
4
3
6
5
3
2
1
3
4
6
2
5
6
2
8
5
10
5
2
8
4
5
2
8
4
3
3
3
6
9
3
1
5
3
4
7
4
2
8
4
7
3
4
7
11
7
4
12
7
0
9
9
7
11
10
6
6
7
10
5
11
7
3
1
8
7
4
7
7
7
8
10
7
4
8
6
6
4
8
3
9
5
4
4
8
13
5
6
3
7
5
8
7
2
5
5
9
4
8
9
8
8
8
4
9
6
6
3
8
8
2
9
5
10
9
3
5
10
12
8
10
5
8
14
9
9
8
11
3
4
12
5
8
8
6
8
8
11
7
3
6
13
9
11
5
6
5
10
8
14
17
8
3
6
8
8
6
10
13
14
11
9
13
12
6
9
6
15
14
14
12
5
9
10
9
8
10
14
13
11
8
9
13
11
7
5
5
11
10
12
12
8
9
9
7
7
10
11
11
10
8
6
15
6
10
7
10
8
7
18
9
10
12
7
8
9
11
8
7
13
10
5
12
8
8
10
8
10
12
4
10
10
13
8
9
16
12
6
8
8
9
12
8
12
8
8
6
14
10
17
12
7
11
13
16
15
12
10
15
10
11
14
13
7
18
6
10
8
16
9
11
14
19
12
9
18
12
13
12
10
10
11
11
22
7
5
11
12
14
13
6
9
9
14
11
18
10
15
10
6
11
8
10
12
16
14
11
11
9
14
7
14
8
14
12
16
9
17
4
15
7
11
14
13
14
10
9
14
8
14
18
10
13
13
12
7
8
16
6
5
10
6
19
6
17
7
15
15
11
16
11
11
14
9
6
18
12
9
16
16
23
13
10
14
23
13
13
15
8
9
12
13
15
17
13
14
11
15
14
10
10
12
10
20
15
16
5
12
18
13
21
17
15
16
11
12
15
17
16
14
10
20
18
15
17
16
13
15
14
15
17
19
13
18
5
17
13
19
21
13
19
15
14
24
21
20
18
11
21
19
8
16
17
16
12
11
16
17
17
16
13
18
16
17
13
21
17
18
19
15
11
14
27
17
26
20
11
12
12
13
10
17
20
10
13
15
20
20
21
14
13
12
19
16
18
10
10
15
11
17
13
18
11
27
11
10
15
23
15
10
17
8
20
9
16
15
18
17
17
9
20
13
19
14
15
16
26
17
20
17
10
23
20
13
25
15
16
20
17
13
13
22
24
19
20
13
22
23
17
13
16
21
16
16
14
10
12
14
18
11
10
18
19
11
22
23
20
10
18
13
17
23
18
17
15
16
28
26
19
16
16
20
15
17
18
10
18
19
18
14
29
18
14
23
21
16
14
15
16
13
22
14
15
20
12
17
19
16
17
24
18
21
18
13
24
17
16
21
21
24
13
14
14
13
9
18
15
20
24
21
24
10
14
18
16
16
26
15
13
20
16
21
15
13
22
18
27
14
16
17
11
16
20
17
24
24
11
27
18
21
23
22
24
28
20
17
16
16
20
10
25
12
22
20
20
18
19
20
24
19
16
17
24
16
19
21
18
15
19
18
19
26
15
22
23
16
11
22
15
18
27
12
24
20
27
17
23
24
24
20
24
20
20
20
27
27
21
23
15
27
21
24
18
18
22
26
27
18
18
22
22
16
20
19
24
28
15
19
19
25
21
25
21
19
15
22
22
7
19
19
23
15
18
16
19
18
13
21
12
15
24
17
20
17
15
18
14
18
28
23
23
28
21
22
20
12
17
21
21
23
21
15
22
18
12
21
26
27
10
14
25
27
22
16
22
20
12
20
15
24
26
20
15
33
10
22
24
23
15
23
28
20
18
21
28
20
24
24
16
16
32
25
26
17
21
25
16
35
33
20
26
22
19
22
20
22
29
27
15
29
24
20
30
20
28
28
21
23
13
15
16
16
25
23
22
21
22
22
27
22
26
22
22
25
29
29
25
20
16
10
15
21
18
18
17
21
21
21
23
14
12
22
20
24
32
15
21
25
14
16
16
18
18
22
17
17
24
18
31
23
16
25
14
25
22
26
19
13
15
16
17
18
20
20
22
19
19
12
22
23
19
25
21
16
27
21
14
11
27
16
22
22
26
18
15
19
18
18
13
28
16
13
24
23
17
23
19
20
17
23
18
23
24
24
27
25
18
16
21
20
29
19
28
17
30
16
20
23
15
19
18
20
21
10
18
23
16
19
14
18
19
16
18
28
27
26
19
20
17
17
15
15
24
24
14
18
18
16
16
20
23
18
20
19
26
28
16
15
17
17
14
22
18
22
30
16
23
19
18
17
22
20
15
24
15
13
20
22
17
18
25
16
27
18
16
23
14
28
18
16
17
21
17
20
30
18
21
20
13
22
17
20
26
17
14
20
18
18
13
30
13
20
17
23
20
18
18
20
18
17
20
17
18
11
20
18
13
21
19
21
14
14
18
19
11
16
18
22
12
22
24
15
15
22
10
18
12
14
16
17
19
12
17
18
17
13
13
12
18
13
22
14
15
11
17
13
14
10
9
10
19
19
11
13
13
17
11
27
14
15
17
22
17
17
11
16
25
14
14
20
15
18
11
16
19
27
13
18
17
14
18
19
24
24
16
18
15
12
16
28
17
19
18
28
19
22
13
23
17
22
15
14
20
19
20
18
13
18
19
12
17
17
15
15
14
20
15
19
14
18
13
28
14
18
20
13
12
7
17
18
13
9
11
13
26
13
20
8
10
16
14
9
6
18
18
13
14
16
18
20
14
19
16
24
17
9
22
19
19
20
15
17
17
9
11
7
17
16
9
14
14
18
10
10
9
10
14
18
8
15
22
22
16
12
14
25
17
9
21
17
18
21
24
13
14
16
16
16
19
10
14
12
8
20
21
23
12
15
14
13
10
15
11
13
19
15
14
11
25
16
23
17
15
13
20
16
12
19
17
14
11
9
18
15
11
21
12
11
13
18
15
21
19
17
13
10
10
19
14
23
17
11
11
13
10
20
16
10
10
15
10
12
13
15
21
15
14
14
17
13
18
16
16
11
15
19
12
8
14
13
12
17
19
13
10
19
18
12
17
16
14
14
19
18
19
19
14
11
16
13
11
13
18
13
14
18
12
12
5
13
10
16
13
12
9
12
11
19
14
16
13
8
9
16
17
8
11
13
7
6
10
8
13
17
16
13
16
17
12
10
12
11
14
8
10
17
13
8
17
16
9
17
15
17
17
13
12
10
7
7
12
13
18
11
12
9
17
10
7
8
14
10
9
10
11
14
8
12
9
13
12
8
13
18
12
13
13
12
10
4
12
17
13
8
18
21
9
6
6
14
12
7
11
12
13
14
11
13
8
16
13
13
10
17
9
10
6
13
9
7
16
6
12
5
13
13
10
10
13
11
9
11
12
8
13
11
9
11
14
11
9
13
10
11
10
12
11
11
6
6
8
7
8
11
10
6
9
15
6
10
15
8
10
9
11
7
11
13
6
14
7
13
7
11
10
7
12
8
8
12
9
7
12
4
8
11
14
10
17
7
6
7
7
7
7
7
7
11
15
10
13
7
11
11
13
7
10
8
6
3
13
6
8
12
12
12
7
10
15
8
6
12
16
8
14
12
12
9
14
5
3
9
7
7
10
8
5
6
9
12
9
3
9
10
9
5
12
6
12
8
10
4
5
6
8
6
7
7
7
9
7
6
8
5
4
9
7
5
8
8
7
5
7
11
10
5
7
9
10
13
5
8
10
9
7
8
9
4
4
4
4
1
7
7
5
4
6
9
6
6
2
11
7
4
3
4
4
6
6
6
7
9
6
6
8
4
10
8
5
11
2
5
8
6
8
8
8
7
13
12
5
3
9
6
13
6
8
7
7
8
3
5
1
6
7
3
3
5
7
4
5
2
4
9
6
4
8
6
5
3
7
4
6
6
5
1
4
6
3
9
3
3
5
7
5
4
10
5
4
3
3
5
4
4
11
6
5
13
4
2
5
4
4
6
2
7
3
5
9
1
4
4
2
6
2
3
1
0
9
6
3
9
7
5
5
4
9
1
8
0
5
5
4
1
2
5
3
1
1
7
5
5
3
1
2
4
2
5
4
1
4
2
1
2
8
1
1
3
3
4
3
5
3
5
5
1
2
1
3
1
3
2
3
1
2
2
2
2
4
2
3
2
5
0
0
1
4
3
1
0
3
1
0
2
0
2
2
1
0
0
2
0
5
2
1
0
3
4
2
1
1
3
3
3
1
2
2
2
1
2
1
1
4
3
2
2
1
0
3
4
1
0
3
2
0
1
1
1
2
2
3
0
0
1
0
1
0
1
1
2
2
3
0
0
1
2
3
1
0
2
2
3
0
0
1
0
0
1
0
1
3
2
1
1
0
0
1
0
0
3
0
1
1
1
1
0
1
1
1
1
0
1
1
0
1
0
1
1
1
1
1
1
0
2
0
0
1
2
0
0
0
0
0
0
1
0
0
2
1
0
0
0
0
0
0
1
3
0
0
0
0
1
0
0
1
1
0
1
1
0
1
0
1
1
0
0
1
0
0
0
1
0
0
1
1
0
0
0
1
0
0
1
0
2
0
0
0
0
0
0
0
0
0
1
2
0
0
0
0
0
0
0
1
1
0
0
0
0
0
0
0
0
1
1
1
1
0
1
0
0
0
0
2
0
0
0
0
0
0
0
0
0
1
2
0
2
0
0
0
0
1
0
3
0
0
1
1
0
0
0
0
0
0
0
0
0
1
0
0
0
1
2
0
0
0
0
0
1
0
0
0
0
1
0
0
0
0
0
0
0
0
1
0
0
0
0
0
0
0
1
0
0
0
1
0
0
0
0
0
0
0
0
0
0
0
0
1
0
0
0
0
0
0
0
0
0
0
1
0
0
0
0
0
0
0
0
0
0
0
0
0
0
0
0
0
0
1
0
0
0
0
0
0
0
0
0
0
0
0
0
0
0
1
0
0
0
0
2
0
0
0
0
0
0
0
0
0
1
0
0
0
0
1
0
0
0
0
0
0
0
0
0
0
0
1
0
1
0
0
0
0
0
0
1
0
0
1
0
0
0
0
0
0
0
0
0
0
0
0
0
0
0
0
0
0
0
0
0
0
0
0
0
0
0
0
1
0
0
0
0
0
0
0
0
0
0
0
0
0
0
0
0
0
0
0
0
0
0
0
0
0
0
0
0
0
0
0
0
0
0
0
0
0
0
0
0
0
0
0
0
0
0
0
1
0
0
0
0
<<END>>
<<DPP CONFIGURATION>>
COM Port: USB
Rise: 3.2uS
Top: 0.2uS
Fast Threshold: 11
PUR Enable: PUROn
RTD ON/OFF: RTDOn
RTD Threshold: 3.13% FS
RTD Fast HWHM: 10
AutoBaseline: Off
BLR: BLR:ON DN:16 UP:4 
Acquisition Mode: MCA
MCS Timebase: 10mS/channel
MCA Channels: 4096
Slow Threshold: 1.17% FS
Buffer Select: Buffer A
Gate Input (TTL): GateOff
Preset: 1 min
Coarse Gain: 110.29x
Fine Gain: 1.0000
Input Polarity: Negative
Input Offset: 0.010V
Pole Zero: OFF
Det Rst Lockout: 1.64mS
TEC: 230.0K
HV: 180.2V
Preamp Power: 8.5V
Analog Out: Shaped Pulse
Offset: 101mV
Aux: ICR
Audio: Off
<<DPP CONFIGURATION END>>
<<DPP STATUS>>
Device Type: PX4
Serial Number: 1567
Firmware: 4.04
FPGA: 4.07
Fast Count: 100437
Slow Count: 98413
Accumulation Time: 60
Dead Time: 2.08%
HV Volt: 179V
TEC Temp: 230K
Board Temp: 31°C
<<DPP STATUS END>>
