<<PMCA SPECTRUM>>
TAG - live_data
DESCRIPTION - 
GAIN - 4
THRESHOLD - 0
LIVE_MODE - 0
PRESET_TIME - 60
LIVE_TIME - 33.156000
REAL_TIME - 60.000000
START_TIME - 03/16/2026 09:12:03
SERIAL_NUMBER - 1567
<<CALIBRATION>>
LABEL - Channel
1383.4 13.95
1755.94 17.74
<<ROI>>
1324 1439
1706 1803
<<DATA>>
0
0
0
0
0
0
0
0
0
0
0
0
0
0
0
0
0
0
0
0
0
0
0
0
0
0
0
0
0
0
0
0
0
0
0
0
0
0
0
0
0
0
0
0
0
0
0
0
0
0
0
0
0
0
0
0
0
0
0
0
0
0
0
0
0
0
0
0
0
0
0
0
0
0
0
0
0
0
0
0
0
0
0
0
0
0
0
0
0
0
0
0
0
0
0
0
0
0
0
0
0
0
0
0
0
0
0
0
0
0
0
0
0
0
0
0
0
0
0
0
0
0
0
0
0
0
0
0
0
0
0
0
0
0
0
0
0
0
0
0
0
0
0
1
1
0
0
0
0
0
0
0
0
0
0
0
1
0
0
0
0
1
1
0
0
0
0
0
1
0
0
0
0
0
1
0
0
0
0
0
1
1
2
0
0
0
0
0
0
0
1
0
0
1
0
0
1
1
2
0
4
1
2
1
0
1
2
1
1
1
2
0
5
0
0
0
2
3
2
3
1
1
3
4
1
3
2
1
3
2
5
2
3
3
2
4
1
5
1
1
0
4
4
1
3
3
5
8
4
4
3
5
4
3
5
8
9
4
5
6
11
6
8
2
7
8
5
4
6
5
8
9
3
6
8
9
5
8
12
11
8
11
16
13
9
10
6
13
13
11
12
4
12
14
9
12
9
13
16
15
13
13
12
16
15
15
17
20
15
15
26
24
17
31
19
26
19
33
22
29
46
32
38
47
53
43
52
48
50
63
55
55
62
53
76
68
79
71
77
80
93
96
73
98
86
92
102
111
94
94
106
117
103
88
122
98
116
114
93
118
104
123
116
111
103
97
111
90
105
104
84
99
73
82
83
68
96
81
65
69
96
80
76
78
58
60
70
51
45
51
60
58
48
49
37
40
46
43
25
38
30
26
27
24
31
24
29
29
25
24
27
32
27
27
24
28
26
25
24
28
12
22
18
13
26
28
25
33
27
32
28
36
25
26
37
31
39
23
46
46
29
37
49
42
53
50
42
46
44
49
55
64
80
70
66
65
67
72
60
66
89
55
68
74
80
65
89
78
91
58
71
77
63
64
81
70
69
73
67
67
50
69
64
59
54
57
60
47
49
47
42
36
51
53
35
44
34
31
42
28
34
46
42
25
27
31
27
24
30
20
21
23
22
20
21
21
14
16
14
18
11
16
12
25
17
11
14
13
17
10
9
12
7
10
9
12
11
13
12
11
6
6
5
9
4
3
7
8
3
8
10
7
8
8
3
6
10
5
5
4
8
9
4
4
6
4
6
10
6
3
5
10
6
5
8
8
5
5
7
8
6
9
3
6
6
9
9
3
6
8
7
6
6
6
5
5
7
6
9
5
4
7
9
6
8
3
1
4
4
9
3
6
3
9
8
5
5
2
11
5
3
5
9
5
7
3
4
11
7
6
1
6
10
4
3
5
8
6
9
7
2
6
0
4
6
7
4
8
6
7
7
3
7
1
8
11
8
5
7
8
7
7
8
6
4
6
8
10
6
7
7
7
6
3
5
7
4
8
7
6
10
7
5
6
11
6
5
4
6
4
2
5
7
8
4
3
3
4
4
3
7
6
4
12
10
9
6
11
9
6
3
1
7
10
8
11
4
6
9
10
6
9
4
7
9
10
3
4
4
7
8
8
5
12
7
8
8
4
7
5
8
6
9
9
8
4
7
7
15
5
8
13
6
10
14
13
5
9
8
8
11
9
9
13
11
10
7
11
9
8
14
7
9
8
9
10
7
4
10
7
10
6
9
7
12
7
8
11
6
6
6
10
8
9
12
16
3
13
12
12
12
12
4
11
5
14
13
9
8
7
18
12
7
8
14
11
6
8
16
11
4
15
11
10
11
13
13
9
7
12
7
8
9
6
12
14
16
11
11
17
11
13
11
10
6
11
10
15
15
12
13
8
13
12
12
14
13
12
10
15
9
10
8
16
12
15
8
8
7
11
9
6
10
10
6
7
4
11
6
4
10
9
8
6
12
9
12
14
10
11
11
10
10
7
14
18
19
16
9
18
21
18
27
18
31
26
38
16
31
37
32
46
48
39
54
55
46
50
55
78
54
86
71
81
81
97
84
98
105
95
110
109
105
119
121
113
121
135
128
135
120
155
133
132
128
122
132
136
125
133
128
150
133
148
131
124
113
105
111
119
111
131
91
82
91
81
80
73
89
58
73
52
74
66
52
62
38
46
42
46
42
40
44
29
34
27
31
24
17
22
20
16
12
23
17
14
21
21
10
6
12
19
17
11
13
18
9
13
12
17
9
12
11
13
7
12
16
13
15
14
12
11
3
7
14
7
6
12
15
9
14
13
6
6
14
8
7
18
7
9
12
13
15
16
15
15
17
15
13
19
13
21
10
16
14
16
33
18
20
26
24
24
34
41
24
35
37
36
50
44
39
45
48
55
44
57
70
65
50
65
60
73
88
87
83
95
98
101
116
108
108
104
108
136
126
112
133
153
148
148
126
120
132
148
147
167
137
146
134
140
147
144
156
143
140
136
145
134
155
118
128
132
149
133
115
131
103
108
108
121
116
84
96
94
86
87
80
80
71
80
72
60
64
67
60
52
59
51
66
53
58
63
77
56
60
57
62
55
59
59
56
62
59
70
65
69
66
76
55
69
63
57
67
66
76
75
66
84
100
97
89
91
91
81
81
73
88
70
88
72
71
70
65
76
61
73
75
73
69
59
64
49
47
55
55
53
51
48
49
48
43
27
34
37
35
45
37
30
19
23
25
19
26
19
18
19
17
14
19
16
14
13
23
18
19
10
19
18
18
9
23
20
20
17
19
15
10
15
16
14
13
16
25
18
14
24
19
15
27
16
16
22
28
25
21
30
19
29
22
22
35
27
31
27
31
24
33
35
24
33
27
39
39
39
32
28
25
31
39
42
37
41
40
42
34
40
37
46
31
35
39
39
39
37
43
50
53
40
51
46
55
57
39
49
53
53
52
59
67
50
62
58
73
69
76
69
78
81
83
82
92
111
107
108
140
141
150
146
170
165
175
191
223
211
212
254
259
293
308
353
382
367
373
417
445
413
510
513
560
545
637
657
647
693
700
773
793
915
861
882
913
957
982
986
1026
996
1011
1055
1073
1125
1128
1168
1112
1142
1098
1154
1144
1026
1117
1112
1099
1099
1026
1016
1063
943
967
979
926
841
835
786
814
744
699
649
658
624
594
557
473
483
468
447
436
439
369
334
295
298
300
223
227
222
199
179
160
151
134
132
105
105
112
78
85
78
70
60
57
56
43
38
33
21
28
31
35
25
28
24
23
21
17
9
17
16
10
20
11
13
17
16
17
14
13
12
11
12
14
7
21
8
6
6
12
11
7
11
7
13
11
13
10
8
7
10
7
13
8
8
11
15
10
10
10
8
10
9
7
11
9
10
10
3
11
9
16
9
15
5
13
8
11
15
11
15
17
11
13
9
11
18
23
15
14
9
19
14
15
20
23
19
16
21
28
18
11
19
20
30
28
20
26
24
29
18
37
30
30
36
41
41
35
32
30
38
39
49
56
60
43
61
49
53
48
42
55
59
65
45
54
57
47
51
50
65
57
56
67
47
69
54
71
62
46
59
55
64
76
52
43
53
61
64
57
55
54
60
53
55
54
63
55
48
57
53
47
47
52
50
52
58
56
51
53
66
50
54
57
56
50
52
73
65
77
72
69
87
76
103
87
93
93
108
96
111
129
144
148
121
154
171
154
183
166
228
203
186
212
229
248
237
271
267
281
279
270
329
302
368
336
330
353
322
380
394
389
393
365
360
423
384
381
386
415
421
422
368
411
412
390
411
365
378
370
362
357
391
407
374
374
338
356
316
332
309
330
296
297
324
273
304
303
296
306
312
309
317
312
325
317
331
346
346
363
360
371
396
446
392
443
465
480
505
531
566
549
637
598
640
686
697
735
767
808
848
866
883
845
957
953
1022
1049
1019
1055
1110
1110
1166
1099
1164
1222
1140
1189
1115
1252
1155
1251
1167
1143
1216
1148
1069
1129
1117
1083
1069
1041
1017
996
922
984
933
844
866
785
772
708
717
745
709
660
578
599
547
486
474
435
446
419
395
378
335
289
302
267
244
235
238
188
197
211
165
151
118
131
119
126
107
99
106
85
80
65
72
67
60
52
50
40
41
47
36
40
33
38
29
33
36
34
39
29
38
29
34
28
26
30
24
28
27
19
32
34
27
30
36
34
21
30
22
27
19
19
15
26
23
22
20
32
31
15
21
16
19
26
17
15
9
22
20
22
12
13
14
11
16
10
11
13
14
10
16
15
18
11
10
13
12
10
7
12
12
8
8
11
11
13
6
10
7
11
13
6
5
9
7
7
8
13
8
6
6
6
10
11
7
9
12
5
5
4
5
11
9
6
9
8
18
7
8
10
11
23
11
17
8
10
9
12
11
11
7
13
12
11
14
9
7
12
10
17
13
7
12
14
17
20
16
18
15
13
17
28
26
15
18
17
16
21
23
23
16
23
27
23
26
23
29
21
25
25
23
31
26
20
35
25
28
21
34
33
37
32
23
43
37
53
33
48
44
47
67
66
35
46
57
61
56
58
79
73
87
82
90
93
103
95
107
118
135
122
136
146
161
159
164
164
159
201
220
188
218
220
191
212
260
244
209
237
266
257
283
260
280
278
259
294
241
294
282
322
286
288
278
300
279
277
265
274
265
278
274
295
264
252
242
248
228
211
233
224
218
194
180
181
212
182
200
199
186
193
153
152
166
191
164
173
146
141
137
145
133
150
131
161
113
142
141
111
144
124
125
128
121
120
149
115
126
119
104
121
109
122
104
122
107
104
104
112
103
96
87
97
81
88
90
105
76
82
70
80
65
75
80
62
53
74
40
64
61
50
53
57
58
49
51
41
33
32
41
37
22
37
33
37
32
32
17
26
28
35
20
26
34
18
32
28
25
24
23
29
21
27
20
21
23
28
31
29
30
29
34
23
32
27
30
22
29
28
28
28
20
29
29
21
19
23
23
35
20
18
33
25
17
14
21
15
21
26
11
16
17
16
14
24
15
13
13
16
15
7
15
13
12
11
10
9
14
9
9
8
8
7
2
6
10
4
3
4
5
5
2
6
1
2
5
4
3
6
2
3
2
5
4
6
3
4
4
2
0
4
7
3
4
5
2
4
2
7
2
1
4
3
4
6
5
0
2
4
3
5
6
1
4
5
1
2
3
2
8
3
6
1
0
3
1
5
5
3
3
5
2
5
4
3
0
9
5
3
9
5
3
7
3
1
7
4
4
3
5
4
1
5
4
3
4
2
4
1
7
4
4
5
4
3
7
6
3
2
3
4
3
1
5
5
2
5
4
6
3
5
4
3
1
3
4
6
2
2
1
5
4
2
4
5
7
5
3
5
5
2
3
3
6
2
0
2
4
4
7
2
5
5
6
5
4
8
2
5
4
2
2
4
1
3
7
5
6
8
5
5
7
3
8
5
5
5
1
5
6
3
4
7
7
0
7
3
6
3
8
9
2
4
3
7
10
6
6
7
15
4
5
9
7
6
5
7
9
8
8
3
4
3
4
12
9
7
9
8
8
6
6
6
5
4
7
8
5
5
7
9
10
11
5
9
16
3
8
8
9
8
9
10
8
7
6
7
7
3
7
9
5
9
6
6
5
8
9
7
8
6
7
6
6
8
12
13
15
5
8
4
6
8
10
7
23
6
11
5
19
10
14
15
19
11
14
16
17
15
15
12
15
22
24
15
12
19
25
28
23
23
23
29
35
25
35
33
23
43
38
40
41
38
48
46
46
51
65
64
70
74
72
72
86
98
89
92
104
100
95
123
108
138
129
130
116
133
138
156
157
163
150
156
196
171
161
191
159
198
207
214
209
192
211
208
206
191
191
228
174
197
191
163
195
185
205
183
158
162
156
172
150
160
142
147
142
132
132
152
121
95
115
111
103
84
95
82
79
83
73
53
62
72
38
56
45
41
38
42
34
39
35
32
29
21
23
32
16
16
24
14
14
13
8
12
8
5
12
8
3
8
10
8
4
5
1
7
4
4
5
4
10
5
7
4
4
5
7
5
4
1
2
2
9
4
8
4
1
7
1
1
6
5
5
5
4
6
5
3
9
1
5
3
5
3
5
7
4
9
5
7
6
7
6
7
9
6
4
3
7
4
7
5
5
10
3
3
6
2
11
6
9
17
6
12
10
9
12
5
10
13
9
3
5
14
6
8
3
2
7
6
6
4
14
9
7
8
5
7
11
7
12
10
6
9
12
8
12
6
9
7
11
11
10
7
13
11
12
10
10
14
9
14
12
12
10
11
16
18
15
16
10
15
19
11
6
17
22
12
14
26
21
19
16
24
16
22
26
20
8
19
23
10
18
21
30
24
11
18
18
23
23
24
16
17
20
14
16
10
12
13
17
9
13
13
15
13
6
6
8
12
10
13
13
15
14
10
13
7
5
4
6
6
6
7
5
5
3
4
4
5
2
5
3
5
6
7
4
3
6
10
1
3
4
3
1
4
2
3
1
5
2
3
2
2
1
0
3
3
0
2
7
2
2
3
1
5
2
5
1
6
3
5
4
4
3
4
5
6
5
3
2
5
3
7
4
3
3
6
5
2
2
2
8
5
1
4
4
3
9
0
7
2
1
2
2
2
4
1
6
6
7
4
3
8
4
1
2
3
1
4
3
6
2
3
1
3
6
6
3
5
2
3
2
3
4
3
1
3
5
3
1
4
5
3
4
1
5
3
6
2
2
6
3
2
0
3
4
2
6
4
4
1
7
5
2
3
5
4
5
5
1
3
3
3
2
8
14
5
6
2
1
1
1
5
4
5
9
12
7
7
8
8
6
3
5
9
3
6
4
3
6
4
6
8
4
9
8
7
5
4
5
5
6
4
3
5
6
3
6
5
6
3
8
7
7
2
5
5
6
8
6
2
9
16
5
3
12
5
4
7
5
7
7
6
7
8
6
6
1
1
4
8
10
6
5
5
9
9
5
6
2
5
9
7
8
5
7
17
8
18
12
12
10
11
18
11
14
11
12
13
13
22
15
7
14
24
14
20
19
19
30
21
30
19
23
29
39
28
21
39
33
22
27
47
32
39
50
41
41
40
38
58
58
43
48
46
39
56
52
46
46
54
44
61
38
68
69
54
50
62
56
56
59
52
66
53
64
40
59
51
58
55
60
45
35
46
46
42
45
52
53
40
37
39
43
36
49
44
26
29
35
28
39
24
29
32
27
34
25
36
19
23
18
22
21
20
24
16
22
16
17
31
23
15
15
15
10
20
13
13
9
19
17
20
21
9
21
20
11
23
14
14
20
22
15
18
27
14
18
15
12
26
19
18
33
26
29
24
21
37
25
35
28
24
21
30
28
25
25
36
30
36
29
37
32
38
42
45
28
37
34
49
28
41
36
45
38
56
46
44
36
43
35
49
39
45
35
33
42
31
34
44
45
31
29
39
31
41
35
41
29
37
30
33
38
27
34
27
32
15
19
25
9
20
24
27
15
23
17
21
18
11
13
8
15
11
11
9
7
10
9
10
10
7
8
9
5
1
7
7
4
5
10
8
9
6
2
4
6
3
5
6
4
4
3
4
3
3
10
7
4
8
4
4
5
1
5
5
4
4
5
4
1
2
4
3
3
7
3
7
4
3
0
4
6
8
4
1
5
7
5
3
4
8
4
2
6
5
8
5
6
5
2
4
3
6
4
2
5
3
10
5
7
8
1
6
10
11
7
7
7
6
9
6
6
7
4
7
3
6
4
8
5
9
3
6
4
13
4
4
4
5
5
6
6
10
5
5
6
3
7
10
6
7
7
12
5
7
10
3
6
5
9
5
9
12
6
5
5
6
10
7
11
16
11
5
4
4
4
6
9
7
7
12
8
17
9
8
8
15
7
15
4
9
5
10
10
16
13
7
13
12
14
11
6
9
13
16
10
17
17
14
20
16
19
16
24
14
21
18
20
17
20
20
22
26
25
26
29
28
39
32
34
37
43
44
40
37
55
46
45
58
65
67
61
69
82
61
73
81
79
84
83
75
87
95
107
108
104
113
116
86
101
113
123
130
139
127
120
115
125
120
134
142
128
141
112
131
122
139
121
128
125
141
128
109
118
101
102
109
109
104
104
102
89
90
82
91
95
73
98
72
74
71
54
62
73
55
70
61
46
49
46
42
41
32
36
29
32
25
34
25
23
26
9
16
25
19
26
17
20
19
11
12
10
7
6
6
13
7
8
5
7
8
4
7
4
5
1
5
1
4
5
3
3
5
6
2
2
3
2
1
6
3
3
2
6
5
3
1
1
1
0
4
3
3
1
3
3
2
1
1
3
1
6
2
5
2
4
5
5
0
1
2
3
1
2
3
1
2
3
0
3
0
1
4
3
1
1
3
1
2
8
3
4
2
2
1
2
4
0
3
2
1
4
3
2
3
1
2
3
1
2
0
2
2
1
2
1
1
1
2
1
1
4
3
2
4
3
2
4
2
3
1
5
1
4
1
1
3
2
1
2
3
4
2
2
3
4
3
2
2
3
3
3
2
0
3
2
2
5
1
5
3
2
2
4
3
2
2
2
3
0
1
0
2
0
0
2
0
2
4
4
3
5
3
2
3
4
6
1
4
2
2
2
2
1
4
5
0
0
1
2
2
1
4
3
1
6
1
4
0
2
3
0
2
3
4
3
0
3
0
1
0
1
3
1
4
3
2
3
2
2
1
4
2
1
4
3
1
0
2
1
1
1
1
0
1
2
0
4
5
0
1
2
1
4
1
1
2
2
2
3
0
4
7
3
2
0
0
5
1
1
3
2
3
3
3
7
2
2
3
6
4
0
3
3
5
3
3
4
3
7
2
2
3
1
0
4
1
0
1
1
2
0
1
3
2
1
0
4
3
5
3
1
2
6
2
3
2
1
3
2
1
3
2
0
6
3
3
4
5
2
4
5
3
6
3
4
1
5
1
3
3
4
2
0
1
1
3
3
1
1
2
0
5
3
4
3
1
4
2
0
3
2
1
3
2
1
1
5
3
1
3
0
4
1
2
1
1
4
3
2
0
2
2
3
2
0
4
3
5
4
1
2
4
1
4
1
1
1
0
2
1
2
3
3
2
2
0
5
4
3
2
4
2
4
4
1
2
0
1
3
0
5
0
2
3
2
1
2
0
4
1
4
0
6
2
2
4
5
5
5
4
5
7
2
4
2
5
4
4
6
9
7
10
4
3
5
7
10
6
5
4
5
8
8
7
6
10
6
10
12
10
9
9
8
4
12
7
12
13
16
11
11
<<END>>
<<DPP CONFIGURATION>>
COM Port: USB
Rise: 3.2uS
Top: 0.2uS
Fast Threshold: 23
PUR Enable: PUROn
RTD ON/OFF: RTDOn
RTD Threshold: 3.13% FS
RTD Fast HWHM: 10
AutoBaseline: Off
BLR: BLR:ON DN:64 UP:64 
Acquisition Mode: MCA
MCS Timebase: 10mS/channel
MCA Channels: 4096
Slow Threshold: 3.13% FS
Buffer Select: Buffer A
Gate Input (TTL): GateOff
Preset: 1 min
Coarse Gain: 133.19x
Fine Gain: 1.0000
Input Polarity: Negative
Input Offset: 0.015V
Pole Zero: OFF
Det Rst Lockout: OFF
TEC: 230.0K
HV: 501.0V
Preamp Power: 8.5V
Analog Out: Shaped Pulse
Offset: 101mV
Aux: ICR
Audio: Off
<<DPP CONFIGURATION END>>
<<DPP STATUS>>
Device Type: PX4
Serial Number: 1567
Firmware: 4.04
FPGA: 4.07
Fast Count: 471807
Slow Count: 261563
Accumulation Time: 60
Dead Time: 44.74%
HV Volt: 496V
TEC Temp: 230K
Board Temp: 30°C
<<DPP STATUS END>>
