<<PMCA SPECTRUM>>
TAG - live_data
DESCRIPTION - 
GAIN - 4
THRESHOLD - 0
LIVE_MODE - 0
PRESET_TIME - 0
LIVE_TIME - 62.244684
REAL_TIME - 75.788000
START_TIME - 03/16/2026 09:44:37
SERIAL_NUMBER - 1567
<<CALIBRATION>>
LABEL - Channel
1383.4 13.95
1755.94 17.74
<<ROI>>
1324 1439
1706 1803
<<DATA>>
0
0
0
0
0
0
0
0
0
0
0
0
0
0
0
0
0
0
0
0
0
0
0
0
0
0
0
0
0
0
0
0
0
0
0
0
0
0
0
0
0
0
0
0
34
51
40
35
36
27
33
32
24
18
25
28
16
20
22
16
20
21
16
12
14
22
17
12
15
20
13
13
10
19
11
13
11
9
9
10
11
14
9
4
4
16
8
9
7
10
9
10
9
7
10
7
15
6
7
9
9
6
8
12
6
8
7
6
8
6
6
7
7
3
7
5
8
6
10
6
9
5
10
8
10
5
7
10
3
1
2
3
0
3
2
2
3
4
3
1
5
3
3
0
3
3
2
3
2
3
1
2
3
5
3
2
2
4
3
3
3
5
5
2
2
1
4
5
3
5
3
2
6
1
4
3
1
4
5
2
5
3
3
3
4
3
4
3
0
4
5
6
2
5
5
6
2
1
3
3
8
5
4
4
3
4
7
2
6
2
6
6
7
5
6
7
8
7
11
7
7
2
7
8
7
7
6
8
9
4
4
7
10
7
6
4
3
4
4
3
5
1
4
6
4
4
2
4
1
1
2
1
5
5
2
6
2
4
3
1
9
4
4
8
5
10
9
7
8
3
6
7
3
4
5
6
9
7
8
9
7
6
5
9
5
7
7
6
3
2
6
5
3
8
5
2
6
3
10
6
2
6
5
9
8
5
5
6
4
4
7
6
10
5
4
4
7
8
6
6
10
6
4
4
6
7
9
9
13
13
12
15
21
19
32
37
33
48
43
42
66
60
73
71
79
71
83
91
91
89
111
86
108
92
94
100
79
128
98
99
104
91
82
94
97
99
96
81
66
63
73
56
66
57
66
46
41
34
47
24
41
33
35
24
25
28
23
16
24
25
14
16
23
14
25
21
19
16
14
12
14
12
16
15
6
18
9
10
11
11
11
7
11
14
14
4
10
5
2
8
12
2
1
7
6
4
6
6
4
4
4
5
2
5
4
2
5
5
4
4
5
2
4
2
4
5
4
5
11
6
7
14
11
16
11
10
14
18
32
24
37
33
64
47
37
50
55
80
76
73
64
69
76
76
76
72
64
64
72
60
55
57
47
41
54
33
26
23
23
16
18
19
11
8
15
17
16
11
11
8
13
8
16
22
21
18
15
21
30
22
8
22
14
24
19
17
13
16
20
10
11
9
12
15
9
10
8
7
4
5
4
8
3
4
3
5
2
1
9
2
2
3
3
0
3
2
3
1
2
2
1
2
1
3
3
1
0
1
2
1
5
4
2
2
0
2
1
1
2
2
1
2
5
1
1
1
2
2
1
0
3
1
0
2
2
1
2
2
2
3
4
1
0
2
2
1
0
3
3
2
3
3
2
2
0
2
1
0
2
0
1
3
0
0
2
2
2
1
1
2
3
1
1
3
2
0
3
0
1
1
5
2
0
1
0
0
2
1
2
2
2
1
1
6
2
1
4
1
0
0
2
3
1
0
0
2
2
2
2
1
2
2
2
0
2
3
2
4
0
5
0
3
1
1
3
3
1
0
3
3
3
2
2
2
2
2
1
1
6
0
1
3
2
2
1
1
2
0
0
2
2
4
2
0
3
0
2
1
1
2
2
0
0
3
3
1
3
2
2
2
2
3
4
0
2
3
1
0
2
7
2
5
2
0
2
1
1
0
2
2
1
5
4
1
1
1
1
2
3
1
1
2
6
1
0
0
2
1
0
1
4
4
0
2
1
3
3
2
2
4
1
0
4
4
3
2
1
5
2
5
3
1
2
2
3
2
7
5
3
2
4
3
2
1
4
3
1
1
5
3
2
2
6
1
4
2
3
0
3
1
1
1
2
1
1
2
2
0
2
1
1
2
1
1
3
1
0
4
2
2
0
1
2
1
2
2
3
1
1
2
2
5
1
5
2
5
2
2
3
3
6
3
5
3
7
3
4
4
8
5
4
3
9
3
6
2
10
6
6
4
4
3
3
3
4
7
3
3
3
1
5
0
2
2
2
4
2
3
4
5
1
6
3
3
2
1
2
1
7
4
4
2
4
0
4
2
3
2
5
3
4
1
2
1
1
5
2
4
4
1
1
3
3
3
3
0
0
4
1
2
2
1
1
2
0
0
1
1
1
1
1
4
0
7
3
2
5
3
3
0
5
6
2
3
4
5
5
7
9
9
13
11
23
16
22
29
27
29
34
52
57
63
47
57
75
75
74
77
82
75
86
89
79
80
82
70
76
87
75
63
69
51
55
57
38
41
33
21
20
35
10
9
15
4
16
9
4
7
4
3
6
5
3
5
5
2
2
3
3
0
4
3
0
1
4
4
2
5
1
2
1
1
5
6
6
3
2
4
5
1
4
2
3
2
4
4
6
2
4
4
3
2
0
2
6
4
2
2
2
0
0
3
3
1
2
0
2
3
2
3
3
1
1
5
3
2
2
4
2
4
0
1
2
2
1
3
2
4
4
2
1
7
3
2
4
1
5
2
1
5
2
2
3
6
4
3
3
2
5
8
2
5
5
6
6
4
8
4
8
4
12
11
9
9
13
14
11
14
13
10
18
22
23
28
31
28
29
29
37
40
42
51
43
52
69
56
51
67
59
74
46
57
74
62
63
47
61
62
71
64
56
49
58
52
50
51
45
55
42
38
22
27
33
34
31
21
21
24
18
18
18
13
10
11
11
10
13
11
5
6
9
3
2
2
4
5
6
4
9
5
1
6
3
5
2
4
4
4
3
8
8
16
4
16
7
11
11
14
16
15
20
22
23
19
35
33
34
43
40
27
29
49
44
34
37
35
51
36
32
32
19
32
33
23
24
24
18
17
28
15
19
15
15
8
9
10
6
7
4
5
1
4
4
4
3
2
1
3
5
2
3
1
3
2
4
3
2
6
1
2
1
4
3
2
2
3
1
1
4
3
3
2
0
3
2
5
1
1
2
3
2
6
0
0
1
1
1
2
4
2
0
2
5
5
2
2
1
3
2
2
1
2
3
5
6
0
2
3
6
7
4
8
7
8
11
7
11
13
15
11
8
12
10
8
19
9
11
15
8
10
11
10
5
13
10
9
6
6
8
3
8
6
7
4
5
3
4
4
4
5
3
6
3
6
8
5
6
5
8
3
3
9
10
9
7
6
12
11
7
9
4
1
12
4
6
2
8
6
5
5
9
5
10
7
15
10
16
18
11
18
18
26
24
30
28
35
38
46
52
58
63
69
76
84
111
110
132
143
166
139
182
208
223
251
293
293
285
374
347
353
417
397
374
454
446
453
468
461
522
434
440
430
395
417
397
360
350
283
255
294
253
228
206
158
139
138
128
111
81
61
70
49
31
36
38
24
15
19
8
12
7
10
9
9
9
10
1
2
3
5
4
6
1
5
0
6
3
5
6
7
4
4
4
2
2
4
0
6
3
0
1
3
1
0
1
4
3
3
1
3
5
2
3
2
2
0
4
3
2
3
2
1
1
1
1
1
5
1
0
1
1
2
0
1
3
3
1
2
1
3
2
2
1
0
1
0
2
2
0
0
1
1
1
1
4
2
1
1
1
3
1
1
4
4
0
1
1
2
3
1
1
2
2
1
2
0
1
4
2
3
1
1
1
0
4
2
1
3
2
0
2
1
1
2
4
0
1
1
1
0
3
1
1
2
2
1
3
4
1
4
3
2
3
2
4
3
3
5
14
4
11
7
8
10
10
8
20
11
20
13
12
8
16
9
15
9
21
12
7
13
11
12
9
13
9
11
9
8
8
13
8
13
7
9
9
3
9
10
12
13
3
8
8
10
13
10
8
12
9
12
10
7
15
10
3
6
4
8
4
6
7
4
2
3
3
9
4
4
7
6
1
6
4
3
1
3
4
4
4
7
1
6
9
4
5
10
10
9
11
12
19
11
9
14
20
20
23
26
36
33
30
38
48
42
55
51
46
59
57
72
75
71
70
75
97
86
86
85
98
97
116
99
97
114
93
86
96
80
100
85
88
81
85
84
88
80
65
66
81
74
59
55
55
49
52
39
43
40
29
27
26
36
28
20
24
15
20
20
13
19
13
16
15
11
11
20
7
10
17
11
12
11
19
17
27
29
26
25
33
42
55
57
47
55
54
57
83
80
96
118
108
139
151
153
167
170
211
192
226
240
282
298
293
305
286
301
320
312
337
317
296
288
285
285
285
240
248
244
204
206
195
150
172
155
141
135
129
129
110
85
86
84
56
53
49
54
47
64
39
38
44
33
32
25
34
25
19
16
16
14
14
11
14
7
21
7
7
6
8
1
6
4
1
1
2
3
7
1
2
3
5
5
1
3
3
3
4
3
3
5
3
5
1
1
2
1
0
3
1
4
3
1
3
1
6
6
4
5
2
6
2
5
0
8
3
1
7
6
1
5
4
8
1
5
8
3
3
1
4
5
6
4
4
4
2
3
1
0
2
1
2
2
2
3
3
2
2
2
1
2
0
2
1
1
0
0
0
1
0
0
0
2
0
2
1
2
2
0
0
1
1
0
0
2
1
1
1
3
1
1
0
2
0
1
1
3
1
0
1
1
2
1
1
1
1
1
1
2
2
1
2
2
0
1
0
0
1
0
0
1
0
1
4
1
1
1
1
0
1
0
1
2
1
1
0
2
1
1
1
4
0
1
3
1
2
1
0
4
1
1
0
0
4
0
1
2
6
3
8
0
1
4
2
1
4
3
2
3
5
1
3
3
6
3
4
3
6
2
1
3
2
1
1
2
1
1
3
2
2
1
2
2
2
1
2
0
0
3
4
2
3
1
0
0
3
1
1
1
1
1
5
7
3
6
4
8
7
9
10
17
15
27
24
30
29
42
21
19
34
36
36
45
39
52
46
40
39
54
49
48
50
49
44
53
41
51
44
56
53
49
37
33
28
23
28
29
26
24
17
24
19
13
17
19
16
11
13
7
15
12
11
14
12
15
9
12
12
13
9
15
14
12
15
5
14
9
9
8
12
14
12
11
15
9
15
12
16
19
19
16
12
12
18
8
12
15
10
13
11
15
12
17
19
16
16
13
12
8
12
11
13
13
16
7
9
11
5
7
8
7
2
6
6
2
5
3
2
4
3
3
3
1
3
0
0
3
1
1
1
0
3
1
1
0
2
1
2
0
2
1
2
1
1
1
5
1
3
2
2
1
3
6
3
2
4
2
4
2
2
3
5
5
6
4
5
6
0
6
7
4
5
3
0
4
2
3
1
4
3
1
4
1
2
3
1
1
0
2
2
0
1
2
3
1
0
2
0
1
0
1
0
1
0
1
0
1
0
1
1
0
0
0
1
0
1
0
0
0
1
0
2
1
0
3
1
0
1
0
0
2
1
0
0
0
1
0
0
0
0
0
0
0
1
0
2
0
0
0
1
1
1
1
0
1
0
0
2
0
0
0
0
0
1
1
0
0
0
0
1
0
1
1
0
1
0
0
0
0
1
0
0
0
0
1
1
0
0
1
0
1
1
0
0
0
0
1
0
0
0
0
2
0
1
2
3
1
0
0
0
0
1
0
1
1
0
0
1
0
1
0
0
1
1
0
1
2
1
0
0
1
0
1
0
1
1
0
0
0
1
0
1
0
0
1
0
0
0
0
1
1
0
0
0
0
1
1
0
0
0
1
0
1
0
0
0
0
0
0
0
1
1
0
0
0
0
1
0
0
0
2
1
1
0
1
1
0
0
0
0
0
2
0
0
0
1
0
0
1
0
0
1
0
0
1
0
0
0
0
1
1
1
1
0
0
0
0
0
1
1
0
0
0
0
0
0
1
0
2
0
0
2
4
1
0
0
0
1
1
4
0
0
2
0
0
0
1
1
2
0
1
1
2
0
1
2
2
2
2
1
2
1
2
4
3
3
2
2
0
3
4
1
0
2
2
2
2
1
5
1
2
5
1
0
2
1
2
0
2
2
2
2
1
1
0
1
0
0
0
1
3
1
1
0
0
1
2
0
0
0
2
0
0
0
1
1
0
0
0
1
0
1
0
0
0
1
1
0
0
0
0
0
0
0
0
0
0
2
0
0
0
0
0
0
2
1
0
1
2
1
0
1
1
1
0
1
0
3
0
1
4
3
3
2
1
2
5
4
8
8
6
5
14
15
12
6
15
14
14
28
23
24
21
17
18
11
19
17
20
33
24
24
26
28
21
17
21
19
11
17
22
9
18
20
7
15
7
11
7
5
11
3
8
7
5
6
3
0
1
3
1
2
3
2
0
2
2
0
2
1
1
0
1
0
1
0
1
0
0
0
0
1
0
0
0
0
0
0
1
0
0
0
1
0
0
0
0
0
0
0
1
1
0
0
1
0
1
0
0
1
0
0
1
1
2
0
1
2
0
0
1
0
0
1
0
0
0
1
2
0
0
0
0
0
0
0
1
2
1
1
0
0
0
2
1
0
0
1
0
0
1
0
1
0
1
0
1
1
1
0
0
0
0
2
0
0
2
1
0
0
3
0
0
0
0
3
1
0
0
0
0
1
0
0
0
0
0
0
1
0
0
0
0
0
0
0
0
0
1
0
3
2
1
0
1
0
1
0
1
0
0
0
0
1
1
1
0
0
0
0
1
0
0
0
0
1
0
0
1
0
2
0
1
1
1
0
0
0
0
1
0
0
1
0
0
0
0
0
0
0
0
2
0
0
0
0
0
0
0
0
0
0
0
0
1
0
0
0
0
1
0
1
1
0
0
0
0
0
0
0
0
0
0
1
0
0
0
0
0
0
0
0
1
0
1
0
0
1
0
0
0
1
1
0
1
0
0
0
1
0
0
1
0
1
0
1
0
0
0
0
1
0
0
0
0
0
0
0
1
0
1
0
0
1
0
0
0
0
0
2
0
0
0
0
0
1
0
0
0
1
0
0
0
0
0
0
0
1
0
0
0
0
0
0
0
0
0
0
0
1
0
0
0
1
0
1
0
0
0
0
0
0
0
2
0
0
0
0
0
0
0
0
0
1
0
0
1
0
1
0
0
1
0
0
0
0
0
0
0
0
0
0
0
0
0
0
0
0
0
0
1
0
1
0
0
1
0
0
0
0
0
1
0
0
0
0
0
1
0
1
0
0
1
0
0
0
0
0
0
1
0
0
0
0
0
0
0
0
0
0
0
0
0
0
1
2
0
0
0
0
0
0
1
1
0
0
0
0
0
0
0
1
0
0
0
0
0
1
0
0
0
0
1
0
0
0
0
1
0
0
0
1
0
0
0
0
0
0
0
0
0
0
1
0
0
0
0
0
0
0
0
0
0
0
0
0
0
0
0
0
0
0
0
0
0
0
0
0
0
1
0
0
0
0
1
0
0
0
0
0
0
0
0
0
0
1
1
0
0
0
0
0
1
1
0
1
0
1
0
1
1
1
0
0
1
0
1
0
0
0
1
0
0
0
0
1
1
0
1
0
0
1
1
0
0
0
1
0
0
0
2
0
0
0
0
0
0
0
0
0
0
0
1
0
0
0
0
0
0
0
0
0
0
0
0
0
0
0
0
0
0
0
0
0
0
0
0
0
1
0
0
1
0
0
0
0
0
0
0
0
0
1
0
0
0
1
0
0
0
1
0
0
0
0
0
1
0
0
0
0
1
0
0
0
0
0
0
1
0
0
0
0
0
0
0
0
0
0
1
3
0
0
0
0
0
1
0
1
0
2
0
0
0
1
1
1
0
0
0
0
0
1
0
0
0
0
0
0
0
0
1
0
1
1
1
0
0
1
0
2
0
0
3
1
1
0
1
1
2
0
1
0
2
1
0
0
0
0
2
0
0
0
0
1
0
0
0
0
0
0
0
0
2
0
0
0
1
0
0
0
0
0
0
1
0
0
0
0
1
0
0
0
0
0
0
0
0
0
0
1
0
0
0
1
0
0
0
0
0
1
0
0
0
1
0
0
0
0
0
0
0
1
0
0
0
0
0
0
0
1
0
0
0
0
1
1
0
1
0
0
0
0
0
0
0
0
0
0
0
0
0
1
0
1
0
0
0
0
0
0
0
0
0
0
0
0
1
0
0
0
1
0
0
0
0
1
0
0
0
0
0
0
0
0
0
1
0
0
0
1
0
1
1
1
0
1
0
0
0
0
0
0
1
0
0
0
0
1
0
0
1
0
0
0
0
0
1
1
0
2
0
0
0
0
1
0
0
0
0
0
0
0
0
0
0
0
0
0
0
0
0
0
0
1
0
0
1
0
0
0
0
0
1
0
0
0
0
2
0
0
1
0
0
0
1
1
0
0
1
1
0
0
0
0
0
0
0
0
0
0
0
0
0
1
0
0
0
0
0
0
1
0
0
0
0
0
0
0
0
0
0
0
0
1
0
0
0
1
0
0
0
0
0
0
0
0
0
0
0
0
1
0
0
1
0
0
1
0
0
0
0
0
0
0
0
0
0
1
1
0
0
0
0
0
0
0
2
0
0
0
0
0
0
0
0
1
1
0
0
0
0
1
0
0
0
0
0
0
0
0
1
1
0
0
0
0
0
0
1
0
0
0
0
0
1
0
0
0
0
0
1
1
0
0
0
0
0
0
0
0
0
0
0
0
0
0
0
0
0
0
0
0
0
0
0
1
0
0
0
0
0
0
0
0
0
0
0
0
3
0
0
0
0
0
1
0
0
0
0
0
0
1
0
2
0
0
0
0
2
0
0
0
0
0
0
0
0
0
0
1
0
0
0
0
0
0
0
0
0
0
0
0
1
0
0
0
2
1
0
1
0
0
0
0
0
0
0
0
0
0
1
0
0
0
0
0
0
0
0
0
0
0
0
0
0
0
0
0
2
0
0
1
0
0
0
0
0
1
0
1
0
0
0
0
0
0
0
1
1
1
0
1
0
0
0
0
0
0
0
0
1
0
0
0
1
1
0
0
0
0
0
1
0
0
0
0
0
0
0
0
0
0
0
0
0
0
1
1
0
0
0
0
0
0
1
0
0
0
0
0
0
0
0
0
0
0
0
1
0
0
0
1
0
0
0
0
0
0
1
0
0
0
0
0
0
0
0
1
0
0
2
1
0
0
0
0
0
0
0
0
1
0
0
1
0
1
0
1
0
1
0
0
0
0
0
0
0
0
0
0
1
1
0
0
0
0
0
0
0
0
0
1
0
0
0
0
0
0
0
0
0
0
0
0
0
1
1
1
0
0
0
0
2
0
0
0
1
2
0
0
1
0
0
0
0
0
0
1
1
0
1
1
0
2
0
0
0
2
1
0
2
1
0
0
0
0
1
0
0
0
0
4
0
1
1
1
0
<<END>>
<<DPP CONFIGURATION>>
COM Port: USB
Rise: 3.2uS
Top: 0.2uS
Fast Threshold: 11
PUR Enable: PUROn
RTD ON/OFF: RTDOn
RTD Threshold: 3.13% FS
RTD Fast HWHM: 10
AutoBaseline: Off
BLR: BLR:ON DN:16 UP:4 
Acquisition Mode: MCA
MCS Timebase: 10mS/channel
MCA Channels: 4096
Slow Threshold: 1.07% FS
Buffer Select: Buffer A
Gate Input (TTL): GateOff
Preset: None
Coarse Gain: 110.29x
Fine Gain: 1.0000
Input Polarity: Negative
Input Offset: 0.010V
Pole Zero: OFF
Det Rst Lockout: 1.64mS
TEC: 230.0K
HV: 180.2V
Preamp Power: 8.5V
Analog Out: Shaped Pulse
Offset: 101mV
Aux: ICR
Audio: Off
<<DPP CONFIGURATION END>>
<<DPP STATUS>>
Device Type: PX4
Serial Number: 1567
Firmware: 4.04
FPGA: 4.07
Fast Count: 62285
Slow Count: 51173
Accumulation Time: 76
Dead Time: 17.87%
HV Volt: 179V
TEC Temp: 230K
Board Temp: 30°C
<<DPP STATUS END>>
