<<PMCA SPECTRUM>>
TAG - live_data
DESCRIPTION - 
GAIN - 4
THRESHOLD - 0
LIVE_MODE - 0
PRESET_TIME - 60
LIVE_TIME - 55.002000
REAL_TIME - 60.000000
START_TIME - 03/16/2026 08:44:25
SERIAL_NUMBER - 1567
<<DATA>>
0
0
0
0
0
0
0
0
0
0
0
0
0
0
0
0
0
0
0
0
0
0
0
0
0
0
0
0
0
0
0
0
0
0
0
0
0
0
0
0
0
0
0
0
0
0
0
0
0
0
0
0
0
0
0
0
0
0
0
0
0
0
0
0
0
0
0
0
61
106
84
69
71
55
44
50
39
38
40
36
34
44
41
40
30
43
45
29
40
36
42
30
39
34
28
42
35
33
22
40
27
33
41
40
29
39
33
29
40
35
40
33
38
28
33
40
34
35
35
31
33
33
43
38
33
37
37
34
8
4
10
4
9
3
7
7
13
7
12
4
8
13
13
9
11
14
5
9
13
9
14
17
11
19
13
13
19
22
15
11
14
18
14
19
21
21
14
14
15
25
24
27
33
18
40
32
34
33
46
50
64
48
69
67
78
68
89
85
125
108
123
130
126
142
156
174
174
163
178
202
201
196
206
206
214
208
222
238
220
209
191
188
175
178
194
172
167
141
145
159
132
137
105
98
111
120
85
81
99
93
68
63
67
65
61
78
57
59
49
43
52
44
43
65
66
51
55
65
59
56
87
78
67
89
90
103
118
104
115
117
115
124
122
150
134
137
160
167
123
148
153
157
141
146
134
129
130
145
120
107
108
110
95
85
89
66
68
90
68
73
49
52
47
61
34
46
43
33
35
35
36
34
36
33
37
14
25
24
27
15
21
15
17
17
16
17
17
16
11
14
7
16
12
19
14
10
9
15
8
18
15
15
11
22
19
12
13
11
18
12
9
16
19
17
15
4
24
9
16
17
13
23
13
16
14
6
10
14
18
8
15
9
13
10
18
22
13
21
11
12
17
9
13
12
11
13
13
25
21
14
12
18
16
19
15
12
21
20
16
14
12
8
14
13
15
14
14
9
18
17
17
12
15
14
18
23
20
12
15
18
14
13
23
13
17
17
14
16
18
23
19
24
24
24
17
36
22
22
32
25
23
14
26
19
27
24
21
21
22
13
16
16
18
28
16
25
11
16
19
19
17
16
13
23
30
24
27
18
21
15
16
12
17
21
25
29
21
16
30
13
22
26
24
26
25
29
33
29
23
20
31
28
23
18
21
30
31
23
26
24
23
20
26
24
15
27
20
17
21
18
24
17
19
18
20
31
20
29
23
22
18
27
20
21
37
41
31
36
42
49
50
53
56
66
77
62
104
117
110
122
134
140
163
177
184
209
233
228
258
258
247
279
275
266
309
285
278
277
265
266
252
257
248
221
221
182
195
176
150
156
133
107
101
110
88
88
73
76
61
65
54
47
51
43
47
35
38
35
30
25
33
25
36
24
24
24
36
26
24
21
26
23
24
31
25
34
25
21
30
44
28
33
49
34
25
30
30
43
46
60
49
50
71
75
87
91
74
102
124
127
139
135
147
179
198
196
203
217
222
228
239
253
290
269
277
264
300
285
293
322
303
334
301
293
270
281
280
268
252
250
222
242
201
181
194
188
163
140
152
114
141
117
122
151
119
118
125
119
113
158
130
146
150
144
132
175
151
139
176
180
195
190
170
198
176
154
154
147
155
123
141
141
117
128
106
110
103
94
90
79
86
61
66
49
49
64
46
50
36
40
35
26
44
31
38
28
45
41
41
36
38
31
35
22
44
51
40
52
65
53
58
58
55
60
59
55
64
78
73
85
80
82
76
86
88
86
78
82
102
79
95
100
90
102
99
103
89
95
127
116
122
123
155
137
141
190
202
185
244
299
345
348
375
460
495
606
669
653
847
862
968
1079
1176
1291
1389
1535
1573
1719
1836
1862
1995
2119
2241
2307
2286
2238
2377
2278
2303
2312
2165
2261
2119
2118
2012
1934
1807
1797
1656
1501
1482
1320
1156
1099
993
838
813
688
605
515
445
429
366
314
255
237
174
158
151
118
96
93
69
60
54
53
40
47
47
34
33
32
29
26
29
26
21
22
28
20
18
22
23
15
21
15
18
23
26
22
21
26
28
19
16
24
24
19
26
27
15
24
25
19
19
25
27
22
42
33
33
36
47
38
48
50
49
63
60
54
57
65
66
62
83
88
88
83
90
95
86
99
96
103
115
115
114
130
121
119
122
112
110
129
147
134
130
113
122
94
126
101
119
91
115
118
101
121
108
129
118
107
114
123
132
150
162
172
202
213
218
209
256
252
280
318
369
382
443
451
482
512
565
559
645
658
695
684
701
768
750
836
814
845
877
878
868
863
817
813
806
867
820
731
792
713
731
714
715
679
683
673
667
647
674
683
706
773
800
848
874
979
1018
1164
1153
1256
1336
1461
1567
1635
1743
1846
1964
2146
2170
2289
2293
2268
2513
2375
2384
2459
2445
2318
2404
2330
2276
2188
2175
2042
2005
1865
1763
1705
1549
1511
1283
1238
1050
1003
910
853
767
655
608
502
465
408
386
296
291
233
219
198
165
145
152
129
98
106
84
83
62
79
63
52
86
60
63
44
49
60
57
54
56
51
53
37
54
48
51
53
45
37
39
31
42
38
49
28
35
31
25
27
30
26
26
23
26
20
16
20
22
17
25
8
20
18
16
24
14
20
17
16
14
18
24
14
20
17
28
12
12
18
19
20
27
18
25
16
32
24
25
21
21
27
30
41
37
29
31
31
37
37
34
38
39
46
43
38
42
55
54
61
47
57
74
61
62
59
56
76
83
103
98
120
144
128
161
183
195
182
227
248
294
309
291
341
370
382
414
442
491
479
457
541
550
558
595
549
611
636
628
593
604
603
598
540
520
600
526
505
500
477
465
473
433
389
405
390
345
346
327
344
345
308
268
312
288
265
285
273
287
248
273
253
253
233
243
254
253
188
214
230
215
195
169
203
173
141
143
171
127
101
127
115
125
86
100
77
81
67
62
63
60
57
65
59
73
67
52
62
60
38
46
61
55
52
50
68
69
69
56
66
53
51
56
40
44
53
40
34
37
41
40
27
35
27
24
33
30
17
21
23
21
17
13
16
14
13
13
14
12
9
12
7
4
11
10
10
9
11
10
13
6
6
7
7
5
12
7
9
9
9
10
8
11
7
11
10
15
3
8
6
12
9
10
6
4
3
9
12
3
4
8
7
7
6
4
9
13
8
5
7
4
7
3
7
6
5
11
9
5
3
15
5
10
7
8
9
8
10
10
1
5
6
9
10
10
7
7
9
10
14
12
8
8
15
10
13
8
9
10
13
11
12
8
11
14
12
4
10
16
16
9
14
8
15
10
7
13
6
9
13
16
14
12
10
14
16
10
13
16
12
11
8
14
9
11
13
10
24
8
12
14
22
16
15
15
15
17
10
12
11
18
23
20
22
19
29
23
21
17
20
16
19
21
27
20
33
35
34
29
42
36
46
48
35
37
43
52
73
65
97
80
95
85
125
137
116
136
165
154
196
199
206
226
233
278
352
291
330
376
376
353
416
369
395
402
426
415
437
421
407
417
425
427
396
366
384
369
333
327
278
254
230
241
217
194
205
165
167
122
114
94
96
90
64
72
59
51
47
43
32
37
19
32
24
16
17
17
4
10
11
14
7
8
10
12
7
11
8
9
6
7
7
10
10
6
11
11
9
9
11
11
12
12
11
11
13
18
13
17
19
16
15
14
23
18
19
15
18
19
20
19
29
24
19
12
23
20
18
11
17
21
27
19
24
19
24
19
28
17
24
25
21
18
18
20
25
30
28
22
30
35
33
36
35
30
38
33
41
34
39
36
38
35
39
37
41
38
34
31
37
39
32
43
40
32
28
30
26
13
16
26
19
20
14
18
20
12
14
16
12
11
13
4
9
7
13
8
8
3
9
9
8
6
10
10
5
9
10
4
9
5
4
3
12
14
4
7
6
6
3
10
9
9
8
6
3
4
5
8
12
5
8
9
8
3
10
13
6
9
7
6
6
6
8
3
8
7
5
8
9
6
4
9
6
9
7
9
3
6
3
7
10
5
7
7
9
10
10
11
7
7
8
8
7
8
14
6
6
8
16
7
9
7
11
16
13
12
11
7
8
8
18
7
10
14
7
10
14
10
7
11
13
10
15
13
10
16
19
11
14
8
15
13
18
20
10
15
29
14
15
15
15
21
18
21
23
29
29
19
18
29
28
35
32
29
45
33
35
48
47
45
54
68
68
78
69
72
70
87
70
85
100
112
99
111
99
113
118
123
120
117
141
117
147
113
123
118
131
117
127
125
111
113
96
94
99
92
84
93
76
81
85
65
64
54
64
64
51
43
44
52
54
56
47
56
39
45
35
29
36
22
31
49
44
38
39
30
43
50
44
43
40
46
48
64
62
57
38
68
64
52
80
73
69
93
78
74
80
80
105
82
91
105
86
90
94
75
94
79
98
69
87
93
81
80
98
64
52
65
58
55
53
44
55
36
32
31
34
29
17
23
20
18
30
30
21
23
11
13
14
9
12
17
9
9
10
10
5
12
11
11
11
8
12
7
7
17
6
8
5
13
9
8
11
13
13
10
16
12
14
15
18
13
11
7
19
17
11
15
20
17
16
15
23
17
15
16
18
7
14
15
12
19
20
16
13
16
15
17
12
8
14
18
17
17
21
12
13
17
20
15
18
20
9
10
21
27
14
18
15
15
14
10
19
27
21
26
26
13
21
41
34
26
26
26
34
33
24
40
43
35
46
52
61
72
66
86
92
82
93
92
107
111
117
146
140
150
209
173
181
197
228
222
222
258
258
253
275
223
255
277
277
279
243
276
242
282
243
247
249
239
243
250
236
226
200
185
174
173
153
153
138
125
110
121
103
77
79
66
68
67
59
47
37
39
30
39
30
21
25
18
17
21
10
15
7
12
6
7
5
3
5
3
6
8
4
3
7
2
7
7
8
3
4
4
7
6
4
7
3
7
6
5
5
3
3
7
3
3
5
7
4
3
4
3
4
5
1
2
4
5
3
6
5
8
7
5
4
7
8
2
6
5
3
5
6
4
4
6
6
5
4
2
2
3
3
8
7
4
2
6
5
3
6
4
10
9
8
4
10
4
7
5
4
3
7
3
3
3
3
2
3
4
1
9
1
2
8
4
5
8
5
2
5
4
4
2
5
2
6
5
5
0
2
4
6
6
3
2
2
4
3
6
4
4
6
4
5
7
2
4
7
4
5
3
5
3
5
2
5
6
6
4
5
4
6
5
5
3
6
2
1
5
2
4
3
5
4
4
5
5
4
4
5
5
7
5
5
5
6
6
4
10
5
3
10
3
6
8
11
2
3
5
6
5
6
5
9
3
2
2
2
2
2
5
2
2
10
4
1
1
5
3
1
2
7
4
4
4
6
3
3
2
4
6
6
2
3
0
5
4
5
1
5
2
3
4
1
4
2
2
6
6
3
3
3
3
3
1
7
6
3
7
7
5
1
3
2
4
7
3
6
7
5
7
3
4
5
3
3
3
3
2
3
1
2
6
2
6
3
5
4
1
4
4
2
3
5
5
2
8
6
6
1
6
4
3
3
5
3
4
4
1
4
4
4
10
6
1
5
8
7
6
2
9
6
7
6
5
6
4
7
8
6
9
4
8
5
8
8
8
5
5
12
9
10
9
7
8
13
14
12
10
10
9
18
18
8
16
16
12
8
8
9
15
13
17
18
13
16
14
15
18
11
13
15
16
15
6
15
12
10
6
11
9
9
9
4
8
12
8
8
13
6
6
6
6
9
6
7
13
9
6
4
7
3
2
8
7
7
10
6
3
5
6
4
3
4
8
5
5
6
9
6
10
3
3
1
5
3
5
9
3
9
6
4
6
7
5
5
6
9
8
3
4
6
4
2
6
4
9
8
1
5
6
6
5
9
6
9
7
4
3
4
6
8
3
6
4
5
5
7
2
6
5
5
7
4
5
5
2
4
7
6
9
4
3
5
6
6
7
6
7
5
5
5
3
5
7
6
4
12
12
12
8
7
4
8
6
13
5
3
6
5
5
9
5
6
6
6
8
12
11
2
9
7
5
8
6
10
6
5
6
12
10
8
5
7
7
9
4
9
5
10
11
7
10
10
8
11
9
13
14
10
8
11
8
8
5
14
10
8
10
8
9
8
6
9
5
11
8
13
11
12
13
6
8
11
14
9
10
12
14
12
12
12
17
12
13
12
12
10
12
9
14
10
11
14
14
13
10
17
19
13
16
15
24
14
11
18
10
16
13
18
13
13
12
8
12
12
18
13
18
22
10
17
14
22
10
19
8
16
17
20
19
16
22
9
13
15
12
18
15
19
16
22
27
9
22
20
18
16
18
13
13
23
20
15
26
25
13
13
18
21
27
15
24
12
24
17
18
21
22
17
21
18
20
20
22
28
18
21
15
21
23
25
15
20
20
24
14
25
17
24
19
21
21
29
29
23
21
19
26
19
26
21
19
33
23
21
20
19
31
24
18
23
25
19
22
19
20
23
12
21
27
24
23
26
20
29
20
23
23
27
12
29
35
21
18
17
33
28
18
20
26
28
22
19
24
24
16
26
28
27
28
21
23
18
20
24
24
19
27
33
26
27
30
22
19
22
21
15
21
17
25
17
27
16
25
26
14
21
22
18
14
15
27
15
23
27
18
29
16
22
25
31
14
16
24
16
26
24
19
21
28
23
23
27
20
21
15
21
20
11
14
23
23
21
22
23
13
24
19
27
27
17
18
20
18
15
22
27
25
21
23
22
18
15
21
26
13
26
14
16
26
18
16
17
15
29
18
16
24
25
15
21
28
19
18
12
23
25
14
22
24
16
20
15
17
19
26
22
29
21
25
19
14
19
18
19
14
12
23
20
13
16
19
21
22
15
22
17
17
15
23
20
30
12
19
17
31
17
20
21
27
27
26
19
11
18
23
22
23
18
19
18
16
20
19
10
20
23
18
15
20
15
13
19
20
22
17
18
15
18
23
26
18
18
21
19
20
17
22
21
28
19
24
16
17
17
16
16
20
14
16
16
20
22
20
23
22
18
14
26
13
22
23
18
18
19
26
24
15
21
14
23
18
12
19
14
15
21
27
29
29
26
25
24
22
26
20
21
26
26
25
18
21
22
20
17
22
20
24
22
29
20
18
24
24
22
25
25
24
19
28
25
24
26
21
28
21
30
29
27
21
20
25
25
26
27
31
32
33
36
29
18
31
29
29
28
29
27
34
40
34
36
35
29
26
21
38
40
29
31
34
23
34
36
31
35
42
31
34
30
32
35
35
24
30
37
30
36
31
34
29
39
42
37
44
32
38
54
43
42
35
51
42
52
37
43
48
51
54
63
59
56
52
63
44
59
52
53
71
67
52
54
53
71
65
90
57
58
59
82
76
82
68
80
74
85
95
100
77
101
87
82
90
83
95
72
100
105
99
95
90
115
87
106
113
111
112
107
132
131
122
117
143
129
123
163
122
128
147
137
139
155
169
150
136
140
149
164
164
172
189
173
171
183
184
171
192
221
195
235
213
211
242
241
243
235
247
248
251
267
259
292
301
282
281
276
317
291
273
333
348
330
328
361
368
371
364
376
413
434
443
432
454
493
503
508
503
539
593
552
596
622
665
679
693
750
828
828
854
911
929
985
1040
1137
1133
1199
1186
1286
1411
1432
1458
1557
1686
1713
1815
1940
2046
2184
2240
2278
2404
2543
2662
2774
2853
3034
3225
3224
3288
3419
3396
3501
3616
3669
3709
3730
3747
3780
3756
3730
3717
3693
3888
3684
3573
3557
3351
3349
3255
3119
3063
2870
2696
2635
2574
2346
2307
2209
1962
1803
1777
1545
1497
1367
1258
1080
1041
944
855
770
690
617
576
456
472
394
352
307
258
210
190
145
135
122
97
87
82
77
53
59
42
32
24
21
17
16
19
8
12
9
10
5
6
2
7
2
4
4
2
3
2
1
2
3
5
1
4
3
3
3
3
3
3
0
1
1
1
4
1
3
3
1
2
2
2
1
1
2
0
2
2
1
3
5
1
1
0
3
3
3
3
0
2
2
2
1
2
2
3
1
0
2
0
0
4
2
1
1
1
1
3
1
3
3
0
0
0
4
2
2
1
2
1
3
1
4
3
1
1
2
0
0
1
0
2
0
2
1
2
2
1
0
0
3
3
1
1
2
3
3
0
2
1
3
2
1
3
4
3
0
3
0
1
1
2
2
2
0
6
3
1
2
2
1
1
0
2
1
4
0
1
0
2
1
2
1
2
0
0
3
0
1
2
0
2
0
1
1
2
3
0
1
3
1
0
4
0
1
1
0
3
0
6
2
1
2
1
1
0
0
0
0
1
1
0
1
0
0
0
1
0
1
0
1
0
2
0
4
1
2
0
0
0
1
0
0
0
2
2
0
0
1
0
0
1
0
0
0
1
2
0
0
2
0
0
0
0
0
1
1
1
0
2
1
1
1
0
2
0
1
0
1
1
1
3
1
0
1
1
2
0
2
0
1
1
0
1
0
0
0
0
0
0
0
1
0
0
0
0
1
1
0
3
0
1
0
0
2
1
2
0
2
1
0
1
0
0
0
2
1
0
0
0
0
1
0
0
1
2
1
0
0
0
0
1
0
0
0
0
0
1
0
0
0
0
2
1
0
0
0
1
1
1
0
1
0
2
0
1
0
2
1
0
1
1
0
0
1
0
1
2
0
2
3
1
0
2
2
1
0
3
1
0
0
0
0
1
1
0
0
0
0
0
1
0
0
1
0
2
2
0
0
0
2
0
0
1
0
1
0
1
1
1
1
3
0
1
0
0
0
0
0
0
0
0
0
0
1
2
0
2
0
0
0
1
0
0
1
0
1
1
0
1
0
0
0
1
0
0
1
0
2
1
1
1
1
0
0
0
2
2
1
0
0
0
3
0
1
2
3
1
0
1
2
0
1
1
2
0
0
0
2
1
0
1
1
3
1
2
1
1
3
1
2
1
0
1
2
1
0
0
0
1
1
1
0
0
0
1
0
0
1
2
3
1
1
0
2
2
1
1
1
1
0
2
3
2
0
1
1
1
0
0
3
0
1
1
2
0
1
0
1
3
0
1
1
3
0
0
1
0
0
1
0
1
0
0
0
0
2
0
2
2
1
3
1
0
2
1
1
0
1
1
1
1
1
0
1
2
1
0
2
1
1
0
2
1
0
2
1
2
0
1
0
0
1
0
2
0
1
1
0
1
1
2
0
1
1
2
0
0
0
0
3
1
2
1
2
0
0
0
0
0
2
1
1
1
0
3
2
0
1
1
0
0
1
3
0
1
0
1
2
2
2
1
1
1
1
2
0
2
0
0
2
1
1
3
3
1
0
0
0
1
2
1
1
2
1
2
2
1
2
3
3
4
5
2
4
5
4
2
7
3
3
4
8
4
6
4
11
6
7
3
6
8
4
7
3
10
8
9
9
6
5
12
8
6
9
15
7
16
19
9
3
11
7
14
13
<<END>>
<<DPP CONFIGURATION>>
COM Port: USB
Rise: 3.2uS
Top: 0.2uS
Fast Threshold: 13
PUR Enable: PUROn
RTD ON/OFF: RTDOn
RTD Threshold: 3.13% FS
RTD Fast HWHM: 10
AutoBaseline: Off
BLR: BLR:ON DN:64 UP:64 
Acquisition Mode: MCA
MCS Timebase: 10mS/channel
MCA Channels: 4096
Slow Threshold: 1.66% FS
Buffer Select: Buffer A
Gate Input (TTL): GateOff
Preset: 1 min
Coarse Gain: 76.70x
Fine Gain: 1.0000
Input Polarity: Negative
Input Offset: 0.012V
Pole Zero: OFF
Det Rst Lockout: OFF
TEC: 230.0K
HV: 501.0V
Preamp Power: 8.5V
Analog Out: Shaped Pulse
Offset: 101mV
Aux: ICR
Audio: Off
<<DPP CONFIGURATION END>>
<<DPP STATUS>>
Device Type: PX4
Serial Number: 1567
Firmware: 4.04
FPGA: 4.07
Fast Count: 590023
Slow Count: 542981
Accumulation Time: 60
Dead Time: 8.33%
HV Volt: 496V
TEC Temp: 229K
Board Temp: 27°C
<<DPP STATUS END>>
