<<PMCA SPECTRUM>>
TAG - live_data
DESCRIPTION - 
GAIN - 4
THRESHOLD - 0
LIVE_MODE - 0
PRESET_TIME - 60
LIVE_TIME - 51.564000
REAL_TIME - 60.000000
START_TIME - 03/16/2026 09:35:40
SERIAL_NUMBER - 1567
<<CALIBRATION>>
LABEL - Channel
1383.4 13.95
1755.94 17.74
<<ROI>>
1324 1439
1706 1803
<<DATA>>
0
0
0
0
0
0
0
0
0
0
0
0
0
0
0
0
0
0
0
0
0
0
0
0
0
0
0
0
0
0
0
0
0
0
0
0
0
0
0
0
0
0
0
0
0
0
0
0
0
0
0
0
0
0
0
0
0
0
0
0
0
0
0
0
0
0
0
0
0
0
0
0
0
0
0
0
0
0
0
0
0
0
0
0
0
0
0
0
0
0
0
0
0
0
0
0
0
0
0
0
0
0
0
0
0
0
0
0
0
0
0
0
0
0
0
0
0
0
0
0
0
0
0
0
0
0
0
0
0
1
1
1
0
2
0
1
2
0
0
1
1
0
2
0
0
1
0
1
2
1
0
0
1
0
1
2
1
1
0
0
0
1
0
0
0
2
0
2
0
0
2
0
0
0
1
1
1
3
0
1
0
1
0
2
0
1
0
1
0
0
3
0
2
0
1
0
0
1
0
0
0
5
1
0
5
3
0
1
1
2
2
3
3
2
3
6
5
5
4
2
4
1
5
6
3
7
6
7
6
5
2
3
7
4
5
8
8
6
6
7
3
7
10
10
8
3
8
11
14
15
9
8
5
11
12
11
10
3
8
6
7
7
11
13
4
10
10
21
11
7
7
10
8
17
10
12
10
14
10
11
10
8
23
6
13
13
13
13
11
4
14
13
18
9
19
11
14
7
16
15
7
16
21
16
17
17
22
22
11
17
17
19
15
16
15
20
10
21
21
15
22
17
22
15
15
9
18
13
21
15
23
14
18
17
17
16
20
24
25
17
14
16
22
15
22
22
28
23
24
20
18
13
27
26
24
14
22
20
26
21
24
26
30
20
18
10
18
29
18
30
21
14
20
20
17
15
21
23
12
29
25
21
13
25
18
38
27
15
13
18
24
25
26
22
16
20
23
26
20
21
19
23
16
22
29
21
20
20
18
23
24
24
23
24
25
23
16
21
25
27
18
25
21
28
32
24
20
26
23
17
11
30
23
20
33
32
30
17
24
31
27
24
27
16
20
18
23
23
28
38
18
28
23
21
26
27
29
27
18
24
26
24
24
24
24
28
29
15
27
26
17
21
24
26
34
20
22
35
29
19
31
15
31
27
19
27
30
22
32
32
26
32
32
39
26
28
30
25
29
26
25
26
24
24
25
25
26
23
33
30
14
23
26
27
30
26
34
33
24
23
38
42
27
28
25
24
25
26
29
26
31
24
27
30
25
35
27
35
33
33
32
30
41
28
22
29
29
32
28
33
27
32
25
34
33
30
32
32
33
31
27
39
34
41
32
28
32
35
32
28
35
40
36
32
40
33
34
47
49
48
54
42
34
46
53
46
45
46
51
56
64
65
66
52
79
74
80
102
88
96
95
97
119
113
124
118
147
119
138
153
167
199
187
218
218
218
213
259
240
228
232
301
338
351
346
345
359
390
383
401
426
440
446
435
418
450
465
480
455
520
500
524
521
539
526
524
513
534
548
539
514
554
538
543
521
563
590
518
514
545
530
553
549
530
530
538
549
568
565
539
527
543
514
509
501
493
497
477
512
497
523
508
520
502
533
488
502
506
525
553
511
536
499
495
494
545
561
526
536
474
516
534
490
484
550
520
483
494
494
489
532
512
495
446
511
500
483
457
432
454
429
410
384
407
413
384
370
366
361
358
316
322
298
322
279
279
306
273
254
250
264
226
214
210
216
201
223
180
177
179
182
179
180
157
146
154
138
147
124
155
110
127
119
123
107
116
106
123
105
97
98
112
86
90
95
71
79
78
82
64
84
73
57
66
64
63
94
69
62
55
69
48
58
67
49
48
57
42
47
47
46
47
48
42
33
32
31
28
34
29
34
33
30
27
15
21
25
25
25
33
17
20
25
22
22
19
12
7
15
15
14
15
10
13
7
12
12
10
12
13
7
12
10
12
7
10
17
15
8
10
9
11
8
6
9
12
10
13
8
11
10
9
17
6
10
5
4
8
13
12
6
12
8
7
6
10
8
6
12
10
10
8
10
11
11
7
9
15
9
8
9
6
8
9
6
9
7
6
12
4
5
6
5
5
3
6
12
5
8
10
9
11
9
9
8
11
10
10
11
15
11
8
16
10
7
11
9
12
13
14
11
12
6
10
10
14
9
8
2
11
13
7
6
7
10
8
7
7
11
9
9
8
16
10
11
15
11
6
6
12
9
15
13
9
7
10
11
11
11
11
10
9
8
5
11
7
11
13
17
12
8
15
12
8
9
2
10
12
10
9
10
12
9
16
8
16
9
14
8
11
8
9
20
11
7
9
12
7
6
7
14
14
10
12
13
7
9
8
8
7
13
8
10
4
8
14
13
7
12
7
11
7
9
9
3
13
7
6
9
10
7
7
8
12
9
11
11
14
5
10
10
8
5
7
8
7
9
9
5
13
5
14
4
8
7
11
4
12
3
5
9
8
11
5
5
2
4
5
9
6
3
3
3
4
6
4
3
9
7
5
6
6
2
9
4
2
10
4
4
3
5
3
0
8
3
5
3
6
4
11
10
4
3
2
5
4
4
4
6
3
4
4
1
4
4
5
5
4
3
5
4
3
4
3
4
2
5
5
5
0
10
5
4
4
3
3
3
3
4
8
2
3
3
1
4
7
6
5
4
1
2
8
3
1
3
5
3
3
5
6
6
2
4
2
3
0
3
3
1
4
4
3
3
3
2
3
6
3
3
1
2
1
4
0
4
4
1
1
3
3
1
3
1
6
4
4
2
2
2
3
2
1
6
0
5
2
4
2
3
8
3
4
2
2
2
4
5
1
0
1
6
3
5
4
1
1
4
4
5
5
2
3
2
1
2
3
3
4
2
3
3
1
1
4
5
2
3
2
3
2
4
0
1
4
1
2
3
2
7
2
2
4
4
4
2
1
5
0
4
7
1
1
1
2
4
1
4
0
4
2
0
3
2
3
7
1
4
2
2
3
0
0
3
2
1
5
2
2
2
1
3
1
2
2
0
1
3
2
2
5
2
1
2
3
3
3
0
1
5
3
1
3
1
3
4
1
2
3
1
0
2
2
3
1
3
2
0
4
1
1
2
2
3
4
0
2
1
1
0
5
2
0
0
2
0
2
1
3
1
0
2
0
3
2
0
0
4
1
1
1
2
2
0
4
3
2
3
1
0
3
1
0
0
2
0
0
4
0
1
0
3
2
1
2
1
0
5
1
0
2
2
2
3
4
2
5
3
3
2
2
3
1
2
0
0
1
3
1
2
0
2
0
1
1
1
0
8
1
2
2
2
2
2
1
3
2
1
0
2
3
1
1
1
1
3
2
2
3
0
2
2
0
1
0
2
3
1
1
3
2
1
2
3
2
1
2
3
0
1
1
1
2
0
2
1
1
3
0
0
1
3
1
3
1
0
0
4
1
3
1
1
2
2
2
2
3
2
1
1
2
2
2
1
4
1
3
1
3
3
2
3
1
5
0
1
2
1
0
0
1
3
0
0
2
2
1
0
2
0
2
3
2
2
1
0
4
4
1
0
1
1
3
0
2
0
0
3
0
2
1
1
3
2
1
0
2
1
2
1
1
1
0
1
0
0
2
1
0
0
2
2
0
0
0
5
2
0
2
4
0
2
0
0
0
4
3
0
1
1
2
2
0
1
3
1
2
6
0
1
0
2
2
4
1
3
0
1
0
0
3
3
0
1
1
6
6
1
0
0
2
3
1
2
0
3
2
4
2
3
2
0
5
1
1
3
1
2
2
1
2
1
1
0
1
1
1
1
0
1
2
0
1
2
3
1
2
1
2
1
3
5
2
1
2
2
2
0
1
3
2
5
2
1
1
1
3
0
2
3
4
2
2
1
1
1
2
3
2
2
3
1
0
0
3
0
4
2
0
3
2
2
0
3
2
2
4
0
1
3
4
2
2
3
2
2
4
0
3
1
2
1
3
1
1
3
2
2
1
0
2
5
1
1
7
2
3
5
1
4
1
3
4
3
2
3
0
0
1
3
5
2
2
5
3
1
5
1
6
6
1
2
3
4
3
2
1
2
5
3
3
2
2
2
3
2
8
3
3
2
1
3
1
5
2
2
3
4
3
1
3
1
4
4
4
2
3
3
3
3
0
2
2
2
2
2
1
4
3
3
2
1
2
1
5
2
2
2
2
6
1
0
5
4
2
3
5
4
5
2
2
3
0
4
3
4
3
3
2
5
4
4
3
6
1
4
4
2
3
4
0
5
6
5
2
3
4
5
3
3
3
2
4
1
5
2
4
5
5
1
8
6
1
4
3
2
9
4
7
5
8
5
4
9
5
2
1
7
4
4
3
5
7
4
1
6
5
4
4
2
4
1
2
1
3
4
5
1
7
4
3
7
7
3
4
5
3
3
5
7
4
6
6
8
6
2
3
6
3
4
6
6
4
4
5
4
5
5
4
8
3
5
7
7
2
9
3
0
6
8
1
2
4
5
5
9
6
6
5
3
7
4
5
3
5
7
5
7
7
7
0
9
6
7
4
5
3
9
5
2
8
2
5
3
3
2
4
5
6
13
2
2
5
5
6
5
3
6
6
5
9
8
10
6
6
6
2
5
10
6
5
5
5
4
6
7
5
5
8
4
2
10
7
7
4
5
5
4
6
5
12
7
7
4
6
15
10
3
13
7
6
7
9
7
6
5
7
8
6
7
3
5
4
6
6
3
16
6
7
3
6
6
7
4
11
6
7
7
4
6
5
15
4
7
7
8
13
10
12
9
13
10
5
4
8
7
11
14
6
8
8
10
5
4
8
5
11
9
7
11
4
13
13
9
11
7
5
7
14
9
8
12
11
9
15
7
11
7
8
8
7
6
14
2
10
10
12
7
12
12
7
12
13
8
11
13
10
16
13
15
10
20
7
14
8
12
6
13
6
17
13
5
14
6
16
12
8
11
8
11
9
8
8
5
9
7
16
11
8
7
8
10
8
6
7
10
7
3
12
20
7
9
16
15
6
12
10
10
9
11
10
10
10
15
13
10
10
11
8
12
22
7
4
14
9
10
14
11
15
8
15
13
15
9
14
11
9
12
15
16
10
13
17
10
11
10
11
12
13
10
20
18
17
14
16
10
11
12
14
11
15
12
14
15
15
12
13
14
6
11
13
10
16
7
8
18
9
16
10
7
13
16
12
17
16
10
10
13
18
12
17
10
12
13
14
15
13
15
18
12
13
20
9
11
13
19
14
13
18
15
17
18
14
10
15
15
13
16
17
22
19
9
13
11
13
15
12
15
16
8
15
13
16
18
17
17
9
18
19
17
14
23
16
14
15
16
17
13
17
13
20
20
20
19
20
22
18
19
12
21
21
14
16
16
17
13
21
25
24
16
15
15
17
14
18
16
16
20
21
16
14
20
10
17
15
17
18
18
15
16
19
17
16
16
16
11
14
15
16
25
14
19
16
20
10
17
17
17
21
24
27
29
23
21
19
19
16
12
21
19
21
11
17
12
20
15
13
25
21
17
13
31
19
14
17
30
17
17
19
21
22
28
22
16
20
14
21
24
16
16
25
18
22
26
17
18
17
16
26
20
22
28
26
14
28
19
30
16
15
25
24
24
22
20
25
16
17
21
37
23
28
12
24
25
29
22
25
19
21
12
24
21
23
20
27
17
28
24
31
23
24
18
27
21
30
23
22
27
19
33
26
17
34
23
33
20
18
23
22
23
19
33
21
25
31
18
27
19
33
12
14
21
23
26
21
17
26
22
16
29
26
27
30
35
26
28
25
21
24
31
26
21
28
36
27
17
26
23
30
24
26
21
16
15
24
25
34
30
16
30
20
28
17
32
23
31
29
21
21
21
36
21
27
26
26
10
17
25
29
21
23
21
21
24
19
16
29
28
29
16
28
15
29
25
18
30
28
22
28
28
27
33
24
24
23
20
29
32
37
26
25
18
22
20
21
23
24
16
15
22
30
20
25
33
19
19
24
26
23
18
18
20
18
32
25
23
19
28
25
34
30
23
31
24
19
16
27
25
21
17
28
26
25
19
16
18
21
33
29
14
31
25
37
26
22
18
19
21
23
17
28
19
21
24
24
27
21
19
25
23
28
30
37
19
27
24
23
21
24
23
14
17
28
27
27
27
28
33
26
27
35
29
27
20
28
28
22
21
27
25
22
19
21
30
19
16
20
25
23
29
28
21
21
29
24
21
16
17
27
31
23
31
26
23
24
24
23
24
37
32
30
24
23
28
24
32
33
16
22
16
25
19
18
20
23
31
16
21
20
28
24
25
31
14
29
35
28
17
26
19
29
25
31
29
17
25
19
22
30
15
22
20
28
23
23
35
22
30
25
28
30
33
28
25
25
28
30
25
20
24
29
37
31
28
30
32
22
27
37
25
30
22
30
26
19
23
28
38
20
36
41
21
31
20
31
25
42
30
18
36
30
25
23
30
23
24
14
36
24
29
27
32
24
36
31
30
20
29
20
35
30
30
37
35
26
33
35
32
31
30
39
22
29
29
29
22
35
26
21
28
31
28
31
29
29
21
30
29
29
18
32
24
30
33
37
25
40
28
34
21
22
36
39
29
24
19
34
19
30
18
30
31
36
32
16
22
26
26
22
27
21
25
27
27
23
34
28
25
30
36
32
30
28
37
24
23
22
14
32
27
37
31
15
31
28
30
25
27
26
25
29
30
30
26
32
44
30
34
34
34
25
28
17
20
31
34
31
22
33
21
23
36
28
33
23
25
27
26
28
28
27
32
34
26
35
25
31
20
23
46
41
27
32
41
36
32
25
25
25
39
29
22
37
35
29
28
22
32
34
24
31
32
29
40
41
30
30
25
23
33
32
34
30
32
31
22
32
23
38
34
36
26
24
27
29
25
29
29
31
26
28
34
25
38
36
27
26
34
28
29
22
21
24
26
21
39
26
25
36
21
31
31
35
27
31
29
26
16
33
25
27
34
29
28
36
28
36
34
35
29
26
23
23
21
32
26
21
24
33
28
31
23
25
33
23
36
27
31
29
33
31
26
32
39
27
21
37
33
35
28
17
31
24
17
38
31
29
32
41
32
39
32
24
38
30
24
26
25
24
28
27
32
28
35
28
34
34
22
27
37
22
29
30
27
32
22
35
43
23
32
22
32
26
22
27
26
21
25
29
26
28
30
34
22
18
21
17
25
27
31
22
28
43
22
17
27
18
31
25
17
26
29
35
25
34
25
19
30
19
24
22
30
31
21
18
25
20
28
25
25
29
27
30
31
19
25
30
21
30
29
23
26
29
21
19
29
33
24
23
21
22
30
26
32
24
27
23
28
24
31
24
31
32
31
33
21
29
28
23
22
29
24
22
18
23
20
22
26
20
18
17
23
20
27
25
18
23
24
19
19
22
21
26
19
32
28
25
14
30
24
32
19
17
33
21
27
22
20
24
26
34
14
25
22
23
20
28
25
27
22
25
28
26
17
24
15
19
27
30
19
26
23
20
23
16
31
22
12
25
27
23
23
18
23
16
14
26
26
20
31
21
37
22
21
19
26
20
20
28
22
24
17
26
13
15
18
25
28
16
32
29
22
22
30
12
18
19
22
22
11
25
23
17
27
13
18
16
25
29
26
28
26
18
19
13
20
8
20
17
19
11
20
20
23
21
15
16
22
21
23
10
18
23
18
15
20
23
18
16
20
17
15
20
12
14
20
12
19
26
14
12
20
22
17
21
16
24
20
24
22
22
27
21
25
12
24
14
17
20
20
11
11
24
13
15
16
18
13
13
18
21
16
15
10
16
19
13
14
12
18
21
19
18
9
14
25
11
18
9
19
14
15
16
8
11
14
14
16
10
14
12
12
18
20
15
13
11
14
17
19
16
11
9
10
12
8
15
11
10
11
13
13
10
7
19
6
8
12
17
17
12
10
10
7
22
6
12
11
16
12
9
12
18
13
8
13
15
11
14
13
18
15
12
13
5
9
16
19
12
8
12
16
12
9
9
8
5
12
10
9
8
7
5
7
5
13
4
12
6
8
8
8
8
7
7
9
8
7
16
11
7
7
5
7
12
13
7
9
10
12
8
6
3
7
8
5
8
9
13
12
3
2
13
6
3
5
9
7
9
5
4
8
11
7
5
6
9
5
6
10
10
7
2
6
5
14
9
7
5
7
7
6
8
9
4
4
8
5
6
5
4
9
7
4
5
8
4
8
10
4
6
7
6
1
5
10
6
3
6
8
9
10
8
5
3
7
2
5
6
4
3
5
0
4
7
3
5
5
6
7
6
3
7
2
4
8
6
10
7
6
4
2
1
5
3
2
6
5
5
5
4
3
6
7
4
2
9
3
2
5
3
6
5
3
2
3
4
2
6
4
5
4
3
2
4
5
4
5
5
2
6
5
6
5
3
3
6
5
4
7
2
2
8
6
6
7
4
4
3
4
4
4
4
3
1
1
2
7
3
1
8
3
1
4
1
1
4
2
7
4
6
1
7
1
0
4
4
4
3
5
3
5
4
4
2
1
8
4
1
5
1
2
4
4
3
7
2
3
1
2
5
5
2
1
2
3
2
4
2
1
2
4
2
2
2
1
2
1
0
3
3
7
1
0
3
1
3
2
0
2
2
0
2
1
3
2
3
3
2
2
1
1
1
2
2
3
3
1
3
1
2
0
4
1
1
2
1
3
2
1
1
2
1
0
1
2
2
1
2
5
0
0
0
1
2
1
2
1
1
1
0
0
0
0
3
0
1
1
0
1
1
1
0
0
1
4
2
0
0
1
1
1
0
0
2
1
0
0
0
2
1
0
0
1
0
1
0
0
0
1
1
0
0
0
0
0
0
0
2
0
0
1
0
0
0
0
0
1
1
0
0
0
0
0
0
0
0
0
0
0
1
0
0
0
0
0
0
0
0
1
0
1
0
0
1
0
0
0
0
0
0
0
0
0
0
0
0
0
0
0
0
0
0
0
0
0
0
0
0
0
0
0
0
0
0
0
0
0
0
0
0
0
0
0
0
0
0
0
0
0
0
0
0
0
0
0
0
0
0
0
0
0
0
0
0
0
0
0
0
0
0
0
0
0
0
0
0
0
0
0
0
0
0
0
0
0
0
0
0
0
0
0
0
0
0
0
0
0
0
0
0
0
0
0
0
0
0
0
0
0
0
0
0
0
0
0
1
0
0
0
0
0
0
0
0
0
0
0
0
0
0
0
0
0
0
0
0
0
0
0
0
0
0
0
0
0
0
0
0
0
0
0
0
0
0
0
0
0
0
0
0
0
0
1
0
0
0
0
0
0
0
0
0
0
1
1
0
<<END>>
<<DPP CONFIGURATION>>
COM Port: USB
Rise: 3.2uS
Top: 0.2uS
Fast Threshold: 23
PUR Enable: PUROn
RTD ON/OFF: RTDOn
RTD Threshold: 3.13% FS
RTD Fast HWHM: 10
AutoBaseline: Off
BLR: BLR:ON DN:64 UP:64 
Acquisition Mode: MCA
MCS Timebase: 10mS/channel
MCA Channels: 4096
Slow Threshold: 3.13% FS
Buffer Select: Buffer A
Gate Input (TTL): GateOff
Preset: 1 min
Coarse Gain: 133.19x
Fine Gain: 1.0000
Input Polarity: Negative
Input Offset: 0.015V
Pole Zero: OFF
Det Rst Lockout: OFF
TEC: 230.0K
HV: 501.0V
Preamp Power: 8.5V
Analog Out: Shaped Pulse
Offset: 101mV
Aux: ICR
Audio: Off
<<DPP CONFIGURATION END>>
<<DPP STATUS>>
Device Type: PX4
Serial Number: 1567
Firmware: 4.04
FPGA: 4.07
Fast Count: 132428
Slow Count: 113909
Accumulation Time: 60
Dead Time: 14.06%
HV Volt: 496V
TEC Temp: 230K
Board Temp: 31°C
<<DPP STATUS END>>
