<<PMCA SPECTRUM>>
TAG - live_data
DESCRIPTION - 
GAIN - 4
THRESHOLD - 0
LIVE_MODE - 0
PRESET_TIME - 60
LIVE_TIME - 49.074000
REAL_TIME - 60.000000
START_TIME - 03/16/2026 09:27:40
SERIAL_NUMBER - 1567
<<CALIBRATION>>
LABEL - Channel
1383.4 13.95
1755.94 17.74
<<ROI>>
1324 1439
1706 1803
<<DATA>>
0
0
0
0
0
0
0
0
0
0
0
0
0
0
0
0
0
0
0
0
0
0
0
0
0
0
0
0
0
0
0
0
0
0
0
0
0
0
0
0
0
0
0
0
0
0
0
0
0
0
0
0
0
0
0
0
0
0
0
0
0
0
0
0
0
0
0
0
0
0
0
0
0
0
0
0
0
0
0
0
0
0
0
0
0
0
0
0
0
0
0
0
0
0
0
0
0
0
0
0
0
0
0
0
0
0
0
0
0
0
0
0
0
0
0
0
0
0
0
0
0
0
0
0
0
0
0
0
0
1
0
1
1
1
0
1
1
0
1
0
0
0
0
1
1
0
0
0
0
1
1
1
0
0
2
0
0
1
0
0
1
0
2
3
0
2
2
1
1
1
1
1
2
2
1
2
3
0
3
0
6
2
1
6
2
2
4
2
2
0
2
6
7
6
7
6
4
8
4
7
3
3
7
7
7
6
4
9
8
5
14
5
14
6
6
10
5
7
10
12
8
10
11
10
16
10
13
14
20
14
14
14
13
16
13
23
25
18
17
21
28
18
18
17
25
25
19
18
18
18
23
22
24
30
27
34
24
28
31
30
21
33
32
21
29
25
30
36
31
27
41
23
34
39
35
40
38
50
34
36
35
38
37
39
40
40
53
41
56
49
45
49
53
57
57
50
49
41
54
45
52
43
49
51
58
48
57
63
48
56
48
68
56
50
56
41
68
60
46
62
59
49
49
50
52
57
64
45
60
61
66
57
67
66
61
56
51
57
55
58
68
47
50
58
44
67
77
65
74
66
70
77
69
66
64
62
72
65
69
62
75
68
70
64
73
58
54
77
59
71
45
71
53
67
62
63
62
64
71
68
77
78
67
77
84
67
80
48
90
67
61
76
60
67
71
65
87
76
62
64
75
86
55
59
67
70
77
71
63
76
68
59
74
82
72
63
71
65
88
78
75
80
69
82
71
84
85
88
72
74
72
66
81
71
95
67
92
73
77
83
80
87
84
63
84
65
79
84
68
79
74
76
73
63
67
83
81
70
85
77
83
67
88
73
85
78
85
75
81
89
81
89
80
53
84
74
68
76
66
88
73
77
97
75
72
72
64
84
93
86
75
67
63
75
89
82
76
72
72
79
87
85
74
78
61
77
83
77
78
63
74
76
82
72
89
80
96
82
84
78
82
89
73
71
73
81
111
94
76
90
71
92
90
66
74
94
76
71
75
96
93
86
109
84
68
83
75
68
82
90
99
84
72
96
76
83
81
87
64
80
83
89
95
79
75
71
73
96
68
89
99
79
63
77
68
87
72
81
76
71
79
75
82
84
100
79
84
74
89
83
92
81
92
80
74
74
82
92
103
91
79
71
83
78
89
85
80
81
85
83
73
90
79
89
77
95
100
84
102
90
77
75
86
89
86
99
101
100
83
91
83
93
96
74
94
92
93
89
88
99
96
92
107
81
106
113
70
78
81
98
97
79
63
76
83
99
86
91
87
90
90
108
91
98
94
86
100
92
104
82
90
84
86
86
86
102
90
104
114
106
74
91
88
89
112
98
98
87
104
100
98
87
94
103
111
88
111
81
105
97
100
84
85
82
107
108
109
102
98
99
100
86
98
78
118
116
93
114
104
113
89
104
85
129
129
94
103
90
103
105
90
111
111
95
94
113
108
97
92
104
104
120
123
119
117
121
114
120
118
112
116
126
121
120
128
106
115
125
117
124
109
123
133
121
92
123
122
125
101
132
119
112
134
143
118
132
131
122
114
119
133
129
124
133
119
125
133
137
122
131
144
113
140
162
153
156
143
145
146
145
140
149
147
153
154
184
169
182
173
168
153
190
209
179
181
200
194
192
200
196
222
205
211
232
223
237
252
213
246
271
254
244
222
243
234
249
276
227
283
247
264
272
251
272
252
298
262
264
254
266
286
272
280
260
250
274
272
275
261
317
295
260
293
269
296
311
304
263
297
300
304
298
302
298
277
291
299
314
329
276
312
303
304
308
300
317
306
298
277
290
274
291
289
321
333
323
300
283
320
309
305
299
309
305
306
292
281
318
316
293
308
323
335
308
306
339
305
315
316
301
340
345
351
336
340
307
333
314
317
345
346
400
326
327
363
366
400
375
374
381
353
421
395
407
423
444
383
484
437
471
433
460
479
460
491
441
491
506
488
519
487
535
521
532
513
527
549
527
540
521
560
554
570
579
584
550
621
598
607
566
604
567
595
611
598
639
649
605
640
634
652
695
662
689
663
730
753
723
803
794
848
841
887
888
935
908
955
982
1060
1007
1084
1119
1210
1192
1289
1251
1323
1406
1433
1467
1503
1589
1636
1667
1685
1796
1781
1897
1965
2051
2099
2046
2239
2278
2311
2294
2299
2478
2450
2575
2533
2673
2603
2702
2731
2786
2907
2783
2954
2890
2881
2993
2971
3021
2976
2945
3048
3146
3166
3148
3090
3105
3007
3103
3175
3129
3242
3178
3114
3151
3062
3175
3082
3145
3169
3149
3016
3098
3059
3032
3071
3053
3014
3010
3092
2998
2989
2952
2948
2887
2934
2893
2918
2750
2880
2821
2680
2700
2729
2592
2579
2575
2506
2437
2410
2416
2303
2229
2318
2180
2128
2049
2091
1986
1985
1788
1736
1738
1649
1670
1566
1565
1524
1344
1374
1323
1269
1213
1157
1061
1006
999
954
871
865
850
766
745
723
672
712
612
553
559
550
482
528
469
457
425
384
419
383
357
370
352
353
335
305
318
328
322
313
278
300
314
293
310
284
300
307
337
293
331
309
288
312
286
309
345
376
394
348
344
396
413
390
423
406
476
466
486
515
512
572
577
616
596
615
645
643
699
780
867
792
855
865
904
1006
1011
1110
1175
1260
1289
1360
1330
1469
1478
1542
1603
1670
1807
1864
1894
1982
2035
2100
2219
2371
2440
2483
2543
2599
2682
2830
2903
3053
2923
3024
3104
3260
3201
3273
3539
3527
3585
3624
3798
3680
3749
3853
3886
3910
3858
3991
4017
4030
4251
4254
4218
4243
4203
4144
4283
4354
4176
4407
4302
4400
4271
4170
4476
4318
4428
4360
4216
4334
4217
4278
4372
4222
4229
4154
4243
4301
4176
4186
4125
4097
4073
4065
3958
4001
3989
3950
3870
3899
3829
3681
3641
3639
3685
3682
3480
3396
3317
3243
3228
3146
3131
3067
3024
2875
2878
2719
2721
2631
2405
2476
2444
2351
2260
2157
2037
1964
1937
1851
1778
1686
1581
1515
1518
1448
1399
1221
1203
1135
1086
1120
950
933
878
802
765
748
716
642
637
583
559
521
460
421
430
400
376
360
303
337
311
242
274
232
221
218
194
217
151
191
150
160
150
115
108
132
115
113
94
93
109
77
73
81
94
80
72
80
74
55
68
80
68
70
88
74
69
65
72
50
81
68
84
71
73
82
77
89
85
82
110
99
111
103
103
95
110
135
116
127
125
141
135
164
161
167
182
160
192
172
203
221
228
218
236
251
257
245
274
262
278
301
324
325
314
300
355
351
339
345
373
395
384
406
395
409
414
452
418
405
448
417
451
437
473
477
465
481
481
539
517
527
548
551
546
569
529
547
540
540
569
559
592
571
617
526
572
559
561
527
555
587
568
589
557
538
570
608
543
581
555
547
603
550
563
561
607
563
524
558
577
546
547
553
508
546
520
495
483
468
487
477
497
464
427
426
413
426
403
423
380
413
357
396
353
349
335
317
369
331
334
324
278
289
325
293
279
272
236
258
227
218
225
228
198
221
230
193
209
199
148
178
145
171
146
164
145
137
138
136
123
128
138
99
117
85
85
95
79
92
89
86
79
80
106
100
72
56
65
57
62
51
53
52
46
52
40
41
37
45
55
34
28
45
35
37
46
39
19
40
25
21
35
23
29
24
24
26
23
21
19
28
22
28
17
19
17
32
13
18
16
15
19
13
18
23
16
12
14
17
12
10
12
11
11
12
11
9
9
15
11
6
9
9
13
9
3
9
13
10
14
6
13
7
5
12
11
8
8
9
12
10
11
7
4
7
11
11
8
3
6
8
8
7
9
5
5
6
9
10
12
8
5
10
12
9
6
9
7
9
9
6
10
2
4
10
9
9
9
14
9
9
13
6
8
12
9
13
7
7
10
12
8
11
13
9
8
10
6
16
8
14
11
14
11
7
7
6
8
7
7
16
11
14
6
11
11
7
14
9
9
12
12
13
11
9
9
14
10
7
11
6
7
14
14
15
11
14
7
10
11
13
9
8
14
7
13
13
13
12
11
13
14
15
14
9
7
8
8
12
11
17
11
11
12
19
15
11
13
8
10
13
11
17
12
13
14
16
11
13
5
11
9
14
12
11
14
12
11
10
6
14
16
11
10
10
9
20
16
12
11
12
13
12
16
16
25
17
11
14
21
9
11
14
15
18
19
19
11
8
14
10
16
10
11
11
17
14
16
7
13
24
16
10
9
16
14
14
16
15
17
18
16
16
13
8
21
13
10
17
14
7
11
14
9
13
17
16
18
10
18
18
18
19
20
28
11
17
15
22
24
19
19
15
10
14
17
15
16
22
13
22
12
23
18
18
17
18
14
17
15
17
26
16
18
20
13
12
20
13
18
22
20
20
24
19
30
15
16
21
13
17
22
22
19
14
18
22
17
14
18
24
22
17
25
17
18
13
20
21
18
29
15
11
20
27
29
24
23
23
17
24
17
28
18
25
28
21
23
20
19
23
17
26
26
26
25
25
15
23
28
28
25
17
25
17
29
14
24
24
28
21
25
16
27
18
16
21
20
18
22
18
13
28
25
21
21
26
20
27
34
18
33
32
24
27
29
29
38
28
25
33
40
34
25
24
28
23
42
25
28
26
33
38
30
26
31
31
23
39
31
29
32
31
26
28
34
43
24
35
31
29
24
33
25
28
33
25
34
40
24
33
39
39
41
45
37
42
49
24
40
25
39
27
29
32
37
29
38
38
21
43
32
38
39
38
43
38
32
42
36
38
37
50
37
33
39
47
33
39
27
43
35
37
32
41
27
31
35
37
37
44
35
42
37
32
34
40
48
43
46
40
37
37
42
31
36
35
53
45
31
42
40
41
33
42
36
28
39
43
44
35
31
44
37
36
31
35
44
32
38
39
34
36
41
36
38
45
47
41
49
51
50
43
35
36
37
32
35
39
39
37
38
49
38
38
50
45
33
39
41
39
39
32
41
44
29
41
49
35
33
50
43
33
39
44
54
43
52
36
41
35
46
41
53
52
53
48
33
48
44
38
43
51
63
53
47
55
47
36
52
36
48
52
56
57
52
49
63
57
45
50
56
55
50
54
57
47
68
54
68
41
67
52
61
67
62
58
77
59
44
61
50
67
54
61
75
64
52
68
59
63
77
61
60
62
65
53
72
57
55
62
64
56
53
59
72
55
55
57
77
70
65
56
71
60
48
75
51
65
63
48
40
74
74
57
68
63
47
59
64
62
74
50
74
69
76
62
48
57
61
65
43
77
70
62
56
79
64
63
71
54
52
59
65
64
51
61
60
70
70
63
67
57
57
59
59
61
67
53
63
65
71
66
65
57
56
53
56
59
48
68
61
62
56
51
67
51
56
51
71
53
67
53
66
59
62
59
60
54
66
54
48
60
50
52
58
64
46
76
72
59
78
55
73
64
63
77
66
66
65
61
62
56
67
51
75
65
62
59
63
61
70
74
54
69
67
77
61
63
69
66
44
53
83
73
54
67
59
66
66
66
65
64
49
59
69
60
81
75
73
74
67
71
73
87
69
72
81
63
75
65
83
77
66
70
65
81
75
74
76
65
66
78
83
56
78
69
75
81
75
72
92
64
74
87
80
75
73
79
85
78
74
61
86
95
71
76
80
69
77
74
92
85
85
85
71
83
91
83
76
81
86
81
84
88
79
73
82
94
74
81
88
81
60
84
83
77
73
90
67
83
86
59
71
75
73
82
86
91
81
63
75
78
86
85
78
75
93
84
70
80
77
90
86
78
80
77
74
77
82
80
90
69
73
89
80
86
77
63
91
83
77
89
93
93
75
67
73
80
81
78
87
74
77
68
74
84
98
82
76
83
99
96
79
85
89
85
65
78
86
64
77
72
80
72
62
86
78
77
72
80
71
71
75
98
69
81
87
84
77
86
77
71
59
89
83
68
75
93
81
69
73
77
80
70
72
67
74
87
69
81
61
69
88
71
55
60
64
73
77
63
59
67
70
72
86
76
65
52
75
67
67
74
77
82
61
82
81
78
78
72
75
75
79
84
77
71
73
88
83
89
75
64
80
78
95
64
81
89
79
87
78
78
70
83
85
71
70
73
80
77
76
84
68
89
92
66
78
88
76
82
75
80
88
59
69
89
90
78
79
88
77
85
80
89
78
72
78
77
73
81
78
92
88
79
83
64
103
73
69
80
91
73
93
78
65
82
87
100
74
87
85
71
82
78
83
74
85
79
77
59
85
83
70
80
73
81
80
84
61
81
75
80
106
72
87
83
76
89
76
80
76
69
76
86
76
90
76
84
89
79
81
83
88
86
84
86
91
79
80
83
89
88
86
74
95
101
98
71
95
80
80
92
88
103
73
83
85
78
92
96
69
79
87
88
63
80
74
93
70
85
104
73
89
73
76
92
85
87
94
77
89
83
86
89
85
86
74
78
99
97
72
78
76
92
91
73
83
87
98
94
91
75
83
87
76
87
77
82
93
75
62
80
86
98
97
99
65
107
83
82
96
105
79
87
87
90
94
93
85
104
94
93
73
111
119
90
106
86
75
90
84
100
87
76
91
94
82
83
92
75
81
68
85
92
99
95
87
69
106
71
82
107
111
73
99
98
92
91
87
99
97
78
89
78
78
81
89
88
83
80
115
83
100
87
84
92
92
100
76
93
84
110
83
82
86
74
73
80
90
98
89
74
88
100
86
84
88
79
73
96
109
80
104
97
90
73
78
89
104
87
82
94
102
106
92
98
87
90
105
120
97
94
86
87
91
87
104
73
82
85
94
88
82
94
88
101
81
120
101
100
84
93
89
79
92
99
87
97
92
89
82
102
94
113
73
96
82
100
86
90
92
85
105
90
99
86
75
95
86
92
91
94
86
95
91
107
109
106
100
90
104
71
91
100
75
96
91
98
92
98
98
100
108
103
95
114
92
74
110
99
91
84
92
87
84
87
110
99
88
88
96
97
86
98
92
104
100
86
93
101
87
81
87
108
83
85
93
97
87
74
84
82
84
98
90
94
105
89
84
86
100
99
101
100
89
89
91
96
87
79
102
90
94
72
80
80
89
94
99
86
94
81
76
83
67
72
84
91
88
95
99
92
62
95
79
83
70
82
109
91
83
90
94
90
72
84
89
79
110
82
80
93
85
92
84
77
81
96
86
98
95
87
92
84
70
85
69
83
89
86
89
91
77
86
95
101
86
88
71
75
78
89
92
75
91
84
80
83
72
74
70
83
77
99
66
70
82
97
100
88
85
84
75
89
76
86
80
75
74
92
80
88
101
89
77
75
87
106
99
81
76
93
66
84
80
88
76
87
74
70
75
81
91
77
82
73
72
90
72
81
76
72
77
61
79
91
73
91
73
78
82
79
81
78
69
81
78
97
83
107
74
84
78
82
73
78
99
84
106
91
87
73
92
89
68
73
78
103
85
81
64
74
74
75
65
77
85
88
63
91
67
80
79
85
77
74
69
74
72
81
70
79
108
84
78
75
78
85
70
65
82
74
79
85
76
79
80
87
79
82
78
75
76
80
81
71
74
84
73
78
67
66
78
74
74
72
76
82
83
81
85
67
71
73
73
71
71
87
100
70
86
73
75
59
68
67
80
67
79
70
79
78
82
70
78
96
79
71
75
75
68
69
80
87
69
75
74
69
81
77
83
68
57
54
71
77
72
61
70
50
77
61
69
79
74
69
63
64
74
80
66
62
74
62
67
73
78
80
84
64
71
73
71
76
71
57
61
76
72
72
68
66
66
60
81
75
58
67
73
60
59
64
53
69
57
74
71
85
80
67
53
56
76
67
73
81
61
62
64
69
79
69
63
65
67
73
60
55
60
75
62
76
48
75
83
56
65
81
72
75
78
67
59
67
57
78
63
65
73
64
49
60
56
62
61
55
72
74
58
59
50
75
76
66
59
56
44
60
60
57
75
57
57
59
55
65
65
67
58
57
60
52
58
61
60
50
61
50
56
56
60
59
53
69
61
53
63
69
56
69
58
52
60
53
43
60
48
62
56
47
50
63
47
51
47
57
60
53
53
51
52
62
39
57
46
57
51
52
63
47
46
49
57
51
61
57
43
56
53
51
47
48
43
56
50
52
46
48
49
52
53
49
49
55
63
38
53
47
40
54
51
52
40
40
55
44
50
43
63
50
43
46
50
54
38
51
44
42
41
42
53
51
43
43
42
43
59
48
55
37
57
48
45
51
47
50
32
58
52
46
40
41
46
34
49
44
39
42
44
40
50
47
36
39
42
40
43
46
43
53
47
36
25
35
42
40
35
37
52
35
38
44
39
31
39
40
39
28
35
41
26
46
41
34
38
42
30
41
30
40
38
41
41
39
24
39
28
24
33
36
30
34
31
35
28
33
42
29
29
32
38
37
31
47
28
37
32
25
24
27
47
21
25
39
25
34
33
35
27
33
28
32
33
34
20
31
36
28
34
27
33
22
35
32
23
24
28
32
22
38
35
31
36
21
27
32
35
19
19
31
39
30
22
31
30
26
31
23
22
28
23
28
19
25
25
24
18
20
34
26
16
19
19
23
21
21
16
15
23
19
17
20
19
19
24
19
18
22
20
18
22
15
12
15
18
12
20
19
14
12
21
15
22
11
19
10
11
13
13
8
13
14
15
17
14
13
9
9
8
15
11
12
6
12
15
11
10
4
13
11
12
13
13
9
11
8
8
8
4
12
4
11
11
6
3
5
7
8
9
6
5
6
6
7
3
5
5
5
4
6
9
6
4
3
4
3
2
5
1
6
3
5
4
2
5
3
1
4
6
4
2
0
2
5
2
5
2
5
2
3
2
1
2
0
4
2
2
2
1
3
0
1
1
1
1
0
1
0
2
3
2
2
3
3
1
2
0
3
1
1
0
0
0
2
3
2
1
2
0
2
0
0
2
1
1
3
0
1
0
0
0
2
1
2
0
2
0
0
1
2
2
1
1
0
1
1
2
0
0
1
2
1
2
1
1
2
0
1
0
1
1
3
2
0
2
2
0
2
0
2
1
1
2
4
2
3
1
2
1
1
2
0
1
1
2
0
2
1
2
0
0
1
0
1
0
2
1
0
2
1
0
3
1
2
1
0
1
0
1
1
1
0
2
1
0
0
4
0
0
1
0
2
1
2
0
0
1
1
0
3
0
0
0
0
1
0
0
2
3
1
0
0
2
1
1
3
2
2
4
4
0
2
2
4
1
4
4
1
4
6
3
3
5
2
1
1
3
2
4
8
1
4
5
3
3
2
3
1
7
5
6
5
8
2
5
<<END>>
<<DPP CONFIGURATION>>
COM Port: USB
Rise: 3.2uS
Top: 0.2uS
Fast Threshold: 23
PUR Enable: PUROn
RTD ON/OFF: RTDOn
RTD Threshold: 3.13% FS
RTD Fast HWHM: 10
AutoBaseline: Off
BLR: BLR:ON DN:64 UP:64 
Acquisition Mode: MCA
MCS Timebase: 10mS/channel
MCA Channels: 4096
Slow Threshold: 3.13% FS
Buffer Select: Buffer A
Gate Input (TTL): GateOff
Preset: 1 min
Coarse Gain: 133.19x
Fine Gain: 1.0000
Input Polarity: Negative
Input Offset: 0.015V
Pole Zero: OFF
Det Rst Lockout: OFF
TEC: 230.0K
HV: 501.0V
Preamp Power: 8.5V
Analog Out: Shaped Pulse
Offset: 101mV
Aux: ICR
Audio: Off
<<DPP CONFIGURATION END>>
<<DPP STATUS>>
Device Type: PX4
Serial Number: 1567
Firmware: 4.04
FPGA: 4.07
Fast Count: 1282495
Slow Count: 1057980
Accumulation Time: 60
Dead Time: 18.21%
HV Volt: 496V
TEC Temp: 231K
Board Temp: 31°C
<<DPP STATUS END>>
