<<PMCA SPECTRUM>>
TAG - live_data
DESCRIPTION - 
GAIN - 4
THRESHOLD - 0
LIVE_MODE - 0
PRESET_TIME - 60
LIVE_TIME - 60.000000
REAL_TIME - 60.000000
START_TIME - 03/16/2026 09:58:12
SERIAL_NUMBER - 1567
<<CALIBRATION>>
LABEL - Channel
1446.37 13.95
1837.93 17.74
<<ROI>>
753 758
763 768
1416 1476
1803 1875
<<DATA>>
0
0
0
0
0
0
0
0
0
0
0
0
0
0
0
0
0
0
0
0
0
0
0
0
0
0
0
0
0
0
0
0
0
0
0
0
0
0
0
0
0
0
0
0
0
0
0
0
2086
3273
2053
1322
864
594
304
206
132
100
56
55
42
34
31
38
28
23
19
22
24
21
22
12
19
11
14
7
21
15
14
11
16
12
16
7
2
15
8
8
7
5
9
2
6
9
3
9
9
1
10
10
6
6
2
2
3
6
6
6
1
6
7
1
1
7
7
2
5
5
4
3
6
3
4
4
5
3
3
5
0
1
0
1
0
0
1
0
1
0
1
1
0
2
0
0
1
2
0
1
0
1
0
0
1
1
0
1
1
1
0
0
1
2
0
2
1
1
0
1
0
0
1
1
1
1
2
0
1
2
1
1
1
2
2
0
0
2
2
0
1
0
1
1
1
1
1
1
0
1
1
1
0
1
2
2
1
2
0
0
0
0
0
1
0
1
3
0
2
1
0
1
1
2
2
0
0
0
2
0
2
0
2
1
0
2
0
3
2
3
1
2
1
2
2
6
4
4
5
8
4
6
4
5
7
9
3
4
9
5
9
7
2
11
9
8
5
4
9
2
3
9
7
8
2
6
4
3
6
4
3
5
4
4
5
2
1
3
3
2
0
1
0
2
1
2
2
2
0
1
0
0
1
0
0
2
3
1
0
0
4
0
2
2
1
3
1
0
0
0
1
0
1
1
1
0
2
2
1
0
0
0
1
0
0
0
0
1
0
1
2
1
3
0
0
0
0
0
1
0
1
1
0
0
0
3
0
0
2
0
1
2
0
3
1
2
0
0
0
0
0
0
1
0
0
0
1
0
1
0
0
0
1
1
1
0
0
0
1
2
1
0
0
1
1
1
2
1
1
0
1
1
0
0
3
0
1
0
0
2
0
2
1
0
0
1
2
0
1
0
0
3
0
0
1
0
1
1
0
0
0
1
1
1
0
0
2
0
0
2
2
1
1
0
1
0
1
1
0
0
0
0
1
0
2
1
1
0
0
0
0
0
0
1
1
0
0
0
1
1
1
0
1
0
0
0
0
0
1
0
0
1
0
1
0
1
0
0
1
1
1
0
0
1
0
0
0
1
1
2
0
2
0
0
1
0
0
1
0
0
0
2
2
1
0
1
0
0
0
1
1
0
1
1
1
0
1
2
0
0
2
1
0
0
0
0
0
0
1
0
0
0
2
0
3
1
0
0
0
0
0
0
1
0
0
0
1
1
1
1
0
0
0
0
1
0
0
1
0
1
0
1
1
1
0
0
2
0
1
1
0
0
0
1
0
0
0
0
1
1
0
2
0
1
1
0
0
1
0
0
0
1
0
1
1
0
0
1
0
1
0
0
1
0
0
1
1
0
1
0
1
0
0
1
0
1
1
0
1
1
0
1
1
1
0
0
3
0
1
0
1
0
1
1
0
3
0
1
0
1
0
0
1
0
0
0
3
1
0
0
0
0
2
0
4
2
4
2
2
1
4
4
4
3
3
6
5
8
8
11
6
3
8
10
8
11
10
7
4
8
8
5
8
5
9
6
12
5
3
6
5
7
6
6
4
4
3
3
3
1
4
1
0
0
1
3
4
1
0
3
2
2
1
1
1
2
4
1
0
1
1
2
1
0
1
3
0
1
1
1
0
2
0
0
0
1
2
0
1
1
0
1
1
0
3
1
0
3
1
1
2
0
0
1
1
0
2
3
1
1
5
2
1
1
3
1
3
3
4
5
0
1
2
3
3
6
4
4
2
1
4
2
6
1
3
7
5
4
6
2
3
0
2
3
7
3
7
6
4
2
2
1
4
3
4
6
6
8
4
4
7
6
5
8
8
4
8
2
5
5
6
6
3
7
3
6
5
3
3
5
5
5
1
1
3
2
1
3
8
2
1
3
1
2
0
2
1
1
2
3
3
2
3
0
5
2
0
2
3
8
2
2
2
3
5
2
2
5
0
1
9
3
3
3
3
5
0
1
2
3
2
3
6
4
0
1
4
2
1
6
3
5
0
2
2
3
2
1
1
1
1
1
2
3
0
3
1
3
3
3
1
1
2
2
5
4
2
1
3
1
2
5
4
3
5
2
1
6
5
9
9
11
10
8
7
8
10
14
15
12
13
20
14
8
16
12
13
18
18
22
14
18
20
20
20
23
15
20
21
27
12
19
13
17
7
23
13
17
14
10
13
7
8
14
13
11
4
8
10
10
5
4
3
3
6
8
2
2
5
7
7
6
2
2
8
3
5
7
8
10
6
7
10
7
7
11
5
3
8
5
5
3
7
4
5
6
5
5
4
7
5
5
7
5
6
9
9
9
3
5
3
5
3
2
4
6
6
9
4
1
5
6
4
3
7
4
10
4
9
3
9
8
12
9
19
20
27
26
27
30
45
54
43
60
75
74
89
102
96
155
165
151
187
190
191
216
198
250
257
302
330
300
292
321
346
372
389
410
396
432
407
426
399
407
405
378
385
330
399
378
354
342
324
348
310
341
310
278
254
215
214
177
191
176
170
127
115
106
94
76
71
63
64
59
26
31
31
23
13
18
17
10
4
12
10
6
8
6
2
6
7
2
8
4
1
3
3
3
3
2
5
3
2
3
3
5
4
4
9
7
9
5
11
9
8
8
8
2
8
11
12
9
12
13
13
10
14
4
11
10
16
8
12
8
5
7
7
12
11
5
9
7
8
10
1
6
6
4
3
5
5
7
8
3
4
2
2
1
2
1
2
0
2
3
4
1
3
5
3
1
3
1
3
4
4
2
4
4
4
5
3
4
5
12
7
6
9
7
10
10
12
10
18
9
19
8
13
21
16
23
25
19
18
26
28
22
25
29
48
34
23
43
33
36
50
36
57
56
53
59
61
71
60
84
97
100
104
99
114
139
141
142
154
180
184
210
255
259
292
305
296
312
347
325
383
393
410
440
435
458
439
499
486
487
474
464
448
477
455
489
507
478
493
451
440
434
394
408
383
386
367
323
302
288
275
239
267
264
217
207
161
172
152
145
131
118
87
93
75
89
69
62
57
70
47
40
33
32
40
31
37
22
28
27
23
24
17
23
19
15
17
15
10
12
7
8
9
7
12
6
12
4
8
3
7
3
3
5
5
0
5
0
3
3
4
1
3
1
3
1
5
5
0
2
2
1
1
1
3
2
2
0
1
1
0
0
0
1
0
0
0
0
1
2
2
0
0
0
0
1
0
1
0
0
0
2
1
0
0
0
0
3
0
1
0
1
1
0
0
1
1
1
0
0
0
1
1
2
1
1
0
1
0
0
1
1
2
3
0
2
1
1
0
0
4
4
3
3
1
3
3
4
2
4
1
1
2
5
3
4
2
3
1
2
3
1
2
1
4
3
7
2
5
6
6
6
7
6
10
6
10
11
10
12
13
10
21
21
18
26
28
20
30
25
35
27
40
30
31
43
34
37
42
50
29
42
37
44
35
55
45
39
44
43
37
41
41
22
48
44
29
40
28
27
26
33
38
30
25
19
25
23
21
14
21
12
20
14
24
21
14
20
16
21
14
28
20
17
15
21
14
15
13
19
20
16
18
10
17
12
11
17
13
10
7
16
6
9
8
12
7
5
5
5
3
3
4
8
2
6
5
1
6
4
3
3
2
0
0
1
0
0
2
0
1
1
2
4
2
2
2
1
1
0
2
4
0
9
0
3
4
3
2
2
3
2
2
2
3
1
2
1
6
1
0
0
0
0
1
0
0
2
1
2
1
1
1
0
0
2
1
0
0
1
0
0
0
0
0
0
0
0
0
0
1
1
0
0
0
0
0
0
0
0
1
0
0
0
1
0
0
1
0
0
0
0
0
0
1
0
0
0
0
0
0
0
1
0
0
0
0
0
0
0
0
0
0
0
0
0
0
0
0
0
1
0
0
0
0
1
0
0
0
0
0
0
0
0
0
0
0
0
0
0
1
0
0
0
0
0
0
0
0
0
0
0
0
1
0
0
0
0
0
0
0
0
0
0
0
0
0
0
0
0
0
0
1
0
1
0
0
0
1
0
0
0
0
0
0
0
0
0
0
0
0
0
2
0
1
0
0
0
0
0
0
0
0
0
0
0
1
0
0
0
0
0
0
0
0
0
0
0
0
0
0
0
0
1
0
0
0
0
0
0
0
0
0
0
0
0
0
0
0
0
0
0
0
0
0
0
1
0
0
0
0
0
1
0
0
0
0
1
1
0
1
0
0
0
0
0
0
0
1
0
0
0
0
0
0
0
0
1
0
1
1
0
0
1
0
0
1
0
0
0
0
0
0
0
0
0
0
0
0
0
1
1
0
1
0
1
0
1
0
0
1
1
1
1
0
0
0
1
0
0
0
0
0
0
0
0
0
0
0
0
0
0
0
0
0
0
1
1
1
1
0
0
1
1
0
0
0
0
1
0
0
0
0
0
1
0
0
0
0
1
0
1
0
0
0
0
0
0
1
1
0
0
0
0
1
0
0
0
0
0
1
0
0
0
0
1
0
0
0
0
1
0
2
1
0
0
1
0
0
0
0
0
0
1
0
0
0
0
0
0
0
0
0
0
0
2
0
0
0
0
1
0
0
0
0
0
0
0
0
1
0
0
0
0
0
0
0
0
1
0
0
1
0
1
0
1
0
0
0
0
1
0
0
1
0
1
0
1
0
0
0
1
1
0
0
0
1
1
0
0
0
0
0
0
0
0
0
1
0
0
0
0
2
0
1
0
0
0
0
0
1
0
0
0
1
0
0
0
0
1
0
1
1
0
1
0
0
1
0
0
1
0
0
0
0
0
0
1
3
1
1
0
0
0
0
0
0
0
1
1
1
0
1
0
2
1
0
0
0
0
2
0
1
0
1
2
0
1
0
0
0
0
0
0
0
0
0
0
1
0
0
0
0
0
1
0
2
0
2
0
0
0
0
0
1
0
0
0
0
1
0
0
0
0
0
1
0
0
0
1
1
0
2
0
0
0
1
2
1
1
0
0
0
1
1
0
0
0
1
0
1
0
0
0
0
1
0
0
1
0
0
0
0
0
0
1
0
0
0
0
0
0
0
0
0
2
1
0
1
1
0
1
2
0
0
0
1
0
0
0
0
0
1
0
0
0
0
0
1
0
0
1
0
0
0
0
0
0
0
1
2
1
0
0
0
1
0
0
0
0
0
1
0
2
1
1
0
2
0
0
0
0
0
3
0
0
0
1
0
0
0
0
0
0
0
1
1
1
0
2
1
0
1
1
1
0
2
0
1
0
0
0
0
0
0
0
0
1
2
1
0
0
1
0
0
3
1
0
0
0
0
1
2
0
2
1
1
0
0
0
1
2
0
1
1
2
0
1
2
0
1
2
2
0
0
1
0
1
0
1
0
0
1
0
0
1
0
0
1
3
1
0
1
0
0
0
1
2
1
0
0
0
1
0
0
0
0
2
0
0
3
0
0
1
1
1
1
1
2
0
2
1
1
1
0
1
0
0
0
1
0
0
0
0
1
1
0
0
0
1
0
0
0
1
1
0
0
0
1
1
1
0
2
1
3
0
0
0
1
0
0
0
0
1
1
1
0
2
0
0
1
1
1
0
1
0
0
0
0
1
1
1
0
1
0
0
0
0
1
0
0
0
3
2
0
0
0
1
2
0
1
1
0
1
0
0
0
1
0
0
0
1
2
1
1
0
1
5
0
1
2
1
1
0
0
0
2
1
0
1
1
1
1
0
1
1
0
0
0
0
1
0
0
0
3
0
1
3
0
1
3
1
0
0
0
0
0
4
0
0
1
0
2
1
1
2
1
2
1
1
0
2
0
0
0
0
1
0
0
2
1
1
0
0
0
2
0
0
2
1
0
0
2
3
1
1
1
4
0
1
2
2
1
2
3
0
0
2
1
2
1
0
1
2
0
0
1
0
0
1
2
0
1
1
2
1
1
0
0
0
2
2
1
0
1
0
2
1
0
2
1
1
1
1
0
1
2
0
0
0
1
1
0
1
2
0
2
0
0
0
0
0
1
1
0
0
1
1
2
0
1
2
1
0
0
0
2
0
0
3
1
0
1
0
1
0
1
1
0
0
3
1
0
1
0
0
1
0
1
1
0
1
2
1
0
0
0
0
1
0
0
2
0
0
1
0
1
1
0
0
2
1
2
1
0
0
3
1
1
0
0
0
0
1
1
0
0
0
0
1
0
0
0
0
0
1
1
0
0
0
1
0
1
0
2
0
0
0
0
0
0
1
1
2
2
0
0
0
1
0
1
0
2
0
0
3
0
0
1
0
1
0
0
0
0
1
0
2
0
2
1
0
1
1
1
0
0
0
1
0
1
1
2
0
1
1
0
0
1
1
1
0
1
1
2
1
2
0
1
0
0
0
1
0
2
1
0
2
0
2
0
2
1
3
1
0
0
0
2
0
0
0
0
0
0
0
3
0
0
0
1
1
0
0
0
2
0
0
3
1
1
3
2
1
1
0
1
1
1
0
2
2
0
0
0
1
0
1
2
0
0
1
0
1
0
1
1
1
2
1
0
2
1
0
1
0
0
1
2
0
0
2
1
1
0
0
0
0
0
0
2
1
1
0
1
0
0
1
0
0
0
0
1
1
0
0
4
2
0
1
4
1
2
0
0
0
1
0
0
2
0
0
2
1
0
2
2
0
1
3
0
1
1
1
1
1
2
1
2
0
1
0
0
1
1
0
1
0
2
0
0
2
1
0
0
0
0
1
0
0
4
0
0
0
2
1
0
0
1
0
1
0
1
2
0
0
0
0
1
0
1
0
1
1
1
1
1
0
0
1
4
0
1
1
2
2
1
1
1
2
1
0
1
1
2
1
1
0
0
1
1
0
0
0
2
0
1
1
1
1
0
0
2
1
0
0
0
1
2
0
1
1
0
1
3
0
0
2
0
1
0
0
1
0
0
0
2
0
1
2
0
1
1
0
0
0
0
2
1
0
1
0
0
0
0
2
1
0
0
2
2
0
1
0
0
1
2
0
0
1
1
1
2
0
2
1
0
1
0
1
0
4
1
0
0
0
1
2
2
1
1
0
1
0
1
0
0
1
0
0
0
2
1
0
0
1
0
0
1
0
0
0
0
0
1
1
0
1
0
1
2
0
1
0
0
1
2
0
1
1
0
1
0
0
2
0
1
1
0
1
2
0
0
1
0
1
0
1
1
0
0
1
1
0
0
0
1
1
0
0
0
1
1
0
0
1
1
0
1
0
1
0
2
0
0
0
0
1
1
3
1
0
0
0
0
1
2
1
0
1
0
0
0
0
0
0
0
0
0
1
1
0
1
0
1
0
0
1
1
1
1
0
0
2
0
1
0
0
1
1
2
1
1
1
1
1
0
1
0
0
1
1
1
0
2
0
0
0
0
1
1
1
1
2
1
0
1
0
0
0
0
3
1
1
1
0
1
0
2
2
1
0
0
0
0
0
0
1
0
0
1
0
1
0
0
1
1
0
1
2
0
1
0
0
0
0
0
1
0
2
0
1
1
1
0
0
0
2
0
0
1
1
2
1
0
0
0
0
0
0
0
1
2
0
1
0
1
0
0
0
1
1
1
2
1
0
0
1
0
1
2
2
1
0
0
1
1
0
0
1
1
3
0
0
0
0
1
1
2
0
0
2
0
0
0
1
3
0
0
0
0
0
1
0
0
0
0
0
1
0
1
0
0
0
0
1
1
1
1
0
1
0
0
0
0
0
0
0
2
0
1
0
0
0
1
0
1
2
0
0
0
0
0
0
3
1
0
0
2
0
0
1
0
0
1
0
2
0
0
0
1
0
1
0
1
0
0
1
0
0
0
0
0
1
0
0
0
0
0
0
0
0
0
0
1
0
0
0
0
2
3
1
2
0
0
0
0
0
0
0
1
1
2
0
0
0
0
1
1
2
1
0
1
2
0
1
0
0
1
1
0
1
1
0
1
0
0
0
1
0
1
0
0
1
1
1
0
1
0
1
1
0
3
1
0
0
0
0
1
1
1
0
1
0
0
0
1
2
0
0
0
0
2
1
0
0
1
0
0
2
0
0
0
1
1
0
1
0
1
1
1
0
0
0
0
0
1
1
1
1
1
0
0
1
1
0
0
0
1
1
1
0
0
0
0
0
0
1
0
3
1
0
3
0
0
0
0
0
0
0
0
1
1
0
0
0
0
0
1
0
0
1
0
0
1
0
0
0
0
0
0
0
2
0
0
0
0
1
0
0
0
0
0
0
1
0
0
0
0
0
0
2
0
1
0
1
0
0
0
1
0
1
0
0
0
0
1
0
0
1
1
0
0
1
0
2
0
1
1
0
0
1
0
0
0
1
0
0
0
0
2
0
0
1
0
1
0
2
0
0
0
0
0
0
0
0
0
2
1
0
0
1
1
0
0
0
0
0
2
0
1
0
0
0
0
0
0
0
0
0
0
0
1
1
0
0
2
1
2
2
0
0
0
0
1
0
0
1
0
0
0
0
0
0
1
0
0
0
1
0
0
1
0
0
1
0
0
0
0
0
0
1
0
0
0
0
0
0
0
0
0
0
0
0
0
0
1
1
0
1
1
0
0
0
0
0
0
0
2
0
0
0
0
0
1
0
0
0
0
1
0
1
0
0
0
0
0
0
0
0
0
0
0
0
0
1
0
0
0
0
0
0
0
0
0
0
0
0
0
0
1
0
0
0
0
0
0
0
0
0
0
0
0
0
0
0
0
0
0
0
0
0
0
0
0
0
0
0
0
1
0
1
0
0
0
0
0
0
0
0
1
0
0
0
0
0
0
0
0
1
0
0
1
0
0
0
0
0
0
0
0
0
0
0
0
0
0
0
0
0
1
0
0
0
0
0
1
1
0
0
0
0
0
0
0
0
0
0
0
0
0
0
1
0
0
0
0
0
0
0
0
0
0
0
0
0
0
0
0
0
0
0
0
0
0
1
0
0
0
0
0
1
0
0
0
0
0
0
0
0
0
0
0
0
1
0
0
0
0
0
0
0
0
0
0
0
0
0
0
0
0
0
1
0
0
0
0
0
0
0
0
0
0
0
0
0
1
0
0
0
0
0
0
0
0
0
0
0
0
0
0
0
0
0
0
0
0
0
0
1
0
0
0
0
0
0
0
0
0
0
0
0
0
0
0
0
0
0
0
0
0
0
0
1
0
0
0
0
0
0
0
0
1
0
0
0
0
0
0
0
0
0
0
0
0
0
0
0
0
0
0
0
0
0
0
0
0
0
0
0
0
0
0
0
<<END>>
<<DPP CONFIGURATION>>
COM Port: USB
Rise: 3.2uS
Top: 0.2uS
Fast Threshold: 11
PUR Enable: PUROn
RTD ON/OFF: RTDOn
RTD Threshold: 3.13% FS
RTD Fast HWHM: 10
AutoBaseline: Off
BLR: BLR:ON DN:16 UP:4 
Acquisition Mode: MCA
MCS Timebase: 10mS/channel
MCA Channels: 4096
Slow Threshold: 1.17% FS
Buffer Select: Buffer A
Gate Input (TTL): GateOff
Preset: 1 min
Coarse Gain: 110.29x
Fine Gain: 1.0000
Input Polarity: Negative
Input Offset: 0.010V
Pole Zero: OFF
Det Rst Lockout: 1.64mS
TEC: 230.0K
HV: 180.2V
Preamp Power: 8.5V
Analog Out: Shaped Pulse
Offset: 101mV
Aux: ICR
Audio: Off
<<DPP CONFIGURATION END>>
<<DPP STATUS>>
Device Type: PX4
Serial Number: 1567
Firmware: 4.04
FPGA: 4.07
Fast Count: 51558
Slow Count: 55776
Accumulation Time: 60
Dead Time:       
HV Volt: 178V
TEC Temp: 230K
Board Temp: 31°C
<<DPP STATUS END>>
